timestamp,ppg_red,ppg_infrared,ppg_ambient
0.000000,909.49,852.67,14.87
0.015627,914.49,877.36,16.67
0.031254,925.38,885.20,11.91
0.046881,933.11,903.33,15.74
0.062508,945.37,909.11,14.04
0.078135,952.91,924.37,14.96
0.093762,956.31,928.56,18.76
0.109389,962.51,920.94,14.35
0.125016,963.01,929.05,17.63
0.140643,957.51,930.40,10.78
0.156270,946.48,914.70,12.23
0.171897,947.75,911.07,15.19
0.187524,938.53,898.76,17.34
0.203151,929.30,888.66,13.96
0.218778,923.94,884.49,12.33
0.234406,915.36,870.33,13.62
0.250033,918.99,865.77,17.34
0.265660,901.61,858.40,12.69
0.281287,900.53,851.20,12.78
0.296914,899.86,850.04,17.01
0.312541,889.23,843.05,14.34
0.328168,892.71,840.72,15.11
0.343795,887.31,833.83,15.62
0.359422,888.21,829.35,16.41
0.375049,877.89,832.78,17.88
0.390676,881.94,816.99,10.83
0.406303,869.05,825.61,16.59
0.421930,872.72,823.86,14.66
0.437557,868.16,808.10,13.73
0.453184,861.62,804.01,12.10
0.468811,853.05,796.58,11.94
0.484438,855.49,794.70,13.87
0.500065,852.34,793.28,13.08
0.515692,850.52,792.34,15.32
0.531319,849.54,792.30,18.46
0.546946,853.55,798.46,18.81
0.562573,861.96,807.13,13.66
0.578200,875.23,813.60,14.55
0.593827,876.27,822.55,14.19
0.609454,891.37,835.60,16.04
0.625081,903.58,852.46,16.94
0.640708,915.35,865.40,13.38
0.656335,922.34,882.45,11.33
0.671962,929.99,899.05,17.73
0.687590,944.15,911.50,13.86
0.703217,949.47,916.60,12.81
0.718844,956.27,919.54,11.67
0.734471,965.44,933.55,14.18
0.750098,957.40,925.28,18.02
0.765725,953.00,928.75,13.37
0.781352,950.15,918.25,15.80
0.796979,949.22,915.01,11.45
0.812606,942.25,907.16,15.23
0.828233,938.15,891.69,13.24
0.843860,922.85,885.13,15.16
0.859487,923.87,874.51,16.33
0.875114,913.36,869.51,12.76
0.890741,908.78,859.05,16.46
0.906368,896.83,853.83,13.28
0.921995,897.68,850.23,14.46
0.937622,892.72,840.17,13.80
0.953249,885.31,844.18,14.33
0.968876,893.96,836.51,17.08
0.984503,886.24,832.21,13.20
1.000130,882.21,826.28,14.19
1.015757,876.18,821.19,13.58
1.031384,874.19,827.19,16.41
1.047011,868.12,815.24,15.68
1.062638,866.11,810.66,16.69
1.078265,865.60,800.77,15.69
1.093892,858.30,802.84,16.23
1.109519,853.31,799.89,10.39
1.125147,848.79,793.52,15.03
1.140774,850.87,797.15,11.37
1.156401,851.56,792.37,17.28
1.172028,857.56,795.84,13.17
1.187655,857.17,803.33,13.86
1.203282,860.31,812.53,15.19
1.218909,872.36,815.73,15.57
1.234536,882.34,836.35,15.75
1.250163,897.15,847.01,17.74
1.265790,913.95,864.35,14.26
1.281417,922.27,875.02,16.30
1.297044,926.87,893.60,14.54
1.312671,940.47,899.42,13.92
1.328298,957.71,915.76,15.42
1.343925,957.58,918.56,16.20
1.359552,959.12,927.70,14.49
1.375179,964.93,927.65,15.55
1.390806,964.40,928.79,13.36
1.406433,959.45,919.30,13.94
1.422060,950.01,919.49,15.64
1.437687,939.07,905.76,11.33
1.453314,939.60,900.77,15.98
1.468941,934.17,885.58,13.60
1.484568,918.29,878.99,15.53
1.500195,918.07,871.05,12.34
1.515822,911.49,863.59,14.43
1.531449,908.04,849.10,13.00
1.547076,901.47,853.39,14.41
1.562703,894.32,840.73,12.99
1.578331,892.90,845.43,12.00
1.593958,895.15,835.12,11.63
1.609585,886.82,839.97,14.83
1.625212,885.71,831.53,17.81
1.640839,884.57,829.73,15.23
1.656466,879.89,823.00,13.31
1.672093,876.30,824.13,16.73
1.687720,871.15,811.20,13.72
1.703347,868.46,813.05,13.76
1.718974,865.58,807.41,15.67
1.734601,860.54,801.83,13.09
1.750228,851.37,794.26,14.25
1.765855,848.50,790.46,15.85
1.781482,852.91,799.62,17.08
1.797109,855.02,797.48,10.58
1.812736,859.50,801.70,13.53
1.828363,867.49,809.49,14.73
1.843990,874.86,822.42,16.13
1.859617,882.83,834.33,14.88
1.875244,894.74,847.61,19.63
1.890871,909.04,863.35,17.59
1.906498,924.66,870.00,15.64
1.922125,932.75,891.52,15.53
1.937752,938.62,899.68,13.59
1.953379,944.92,909.82,13.23
1.969006,962.62,923.24,18.00
1.984633,961.93,928.20,17.02
2.000260,962.78,922.06,13.66
2.015887,964.62,923.91,14.21
2.031515,960.79,923.22,12.36
2.047142,952.55,924.95,16.79
2.062769,952.43,909.49,13.93
2.078396,936.00,905.32,15.54
2.094023,938.19,896.20,16.64
2.109650,928.95,889.56,13.79
2.125277,925.48,875.77,11.61
2.140904,913.23,869.70,16.71
2.156531,908.21,864.17,13.98
2.172158,902.27,856.05,13.37
2.187785,903.02,853.45,11.71
2.203412,892.51,837.94,16.68
2.219039,895.77,838.86,12.65
2.234666,888.89,833.68,16.95
2.250293,886.95,835.43,16.94
2.265920,885.91,826.36,16.26
2.281547,878.83,826.38,14.64
2.297174,878.36,823.17,13.61
2.312801,877.70,818.25,15.32
2.328428,869.88,808.52,17.00
2.344055,858.45,805.93,14.07
2.359682,860.30,799.32,13.35
2.375309,862.34,792.71,15.61
2.390936,862.76,798.23,15.44
2.406563,854.97,792.86,14.38
2.422190,860.86,794.47,11.27
2.437817,861.52,797.22,16.40
2.453444,871.90,808.73,14.54
2.469071,872.31,815.35,14.49
2.484699,877.73,829.38,15.00
2.500326,894.78,838.54,15.59
2.515953,905.54,852.22,10.15
2.531580,913.72,868.53,15.22
2.547207,923.72,885.56,11.62
2.562834,935.05,898.51,13.45
2.578461,944.65,910.38,14.77
2.594088,956.55,920.26,13.39
2.609715,953.41,925.87,14.39
2.625342,967.13,927.09,12.64
2.640969,969.13,934.61,17.13
2.656596,965.77,927.41,18.24
2.672223,963.26,925.48,9.46
2.687850,949.19,913.15,15.83
2.703477,946.40,910.66,16.06
2.719104,941.67,899.27,16.09
2.734731,931.61,887.92,19.08
2.750358,923.37,878.29,12.85
2.765985,913.76,868.09,12.48
2.781612,911.98,865.64,14.66
2.797239,905.97,853.84,12.30
2.812866,899.42,857.14,17.89
2.828493,895.45,845.50,19.87
2.844120,891.07,839.33,15.47
2.859747,892.25,839.97,16.41
2.875374,889.24,840.91,16.82
2.891001,889.31,827.70,11.18
2.906628,883.64,829.80,15.37
2.922256,880.90,823.92,16.90
2.937883,876.05,821.78,16.48
2.953510,866.28,816.07,14.20
2.969137,871.09,809.16,15.26
2.984764,864.43,801.48,15.26
3.000391,856.21,796.40,14.80
3.016018,858.74,797.33,16.38
3.031645,857.06,796.45,10.13
3.047272,853.82,799.02,15.93
3.062899,862.38,799.19,17.87
3.078526,866.63,808.68,10.90
3.094153,870.28,809.22,17.02
3.109780,880.59,820.25,14.24
3.125407,892.99,839.65,14.12
3.141034,900.87,849.09,12.55
3.156661,913.93,865.57,11.70
3.172288,920.34,876.48,16.88
3.187915,934.60,893.07,17.40
3.203542,943.50,904.84,13.76
3.219169,950.75,918.64,14.88
3.234796,955.55,923.91,15.59
3.250423,965.76,931.02,16.25
3.266050,963.54,929.79,13.54
3.281677,965.39,926.53,16.42
3.297304,964.62,929.60,15.31
3.312931,958.77,919.19,16.13
3.328558,951.20,913.53,15.27
3.344185,944.26,900.25,18.11
3.359812,934.75,893.40,16.90
3.375440,920.19,883.12,13.26
3.391067,921.06,878.26,13.81
3.406694,910.54,868.10,12.69
3.422321,911.47,857.69,16.88
3.437948,903.91,849.49,11.33
3.453575,900.93,849.85,11.58
3.469202,890.07,846.07,15.68
3.484829,894.21,840.09,13.29
3.500456,892.54,833.62,16.69
3.516083,896.44,830.56,14.87
3.531710,886.78,834.15,15.96
3.547337,881.27,833.06,13.40
3.562964,883.48,826.62,14.07
3.578591,876.40,819.09,12.42
3.594218,871.73,811.83,16.08
3.609845,866.66,807.16,15.03
3.625472,866.09,802.17,13.49
3.641099,858.42,797.18,17.84
3.656726,857.95,798.93,13.01
3.672353,854.59,800.07,16.82
3.687980,858.31,796.83,15.71
3.703607,859.46,800.70,12.40
3.719234,867.39,815.45,12.38
3.734861,875.55,816.91,13.11
3.750488,881.69,826.19,16.97
3.766115,894.68,841.45,14.37
3.781742,913.01,858.10,15.18
3.797369,918.78,872.11,13.36
3.812996,931.46,885.00,13.72
3.828624,939.73,902.33,16.47
3.844251,948.94,916.57,15.05
3.859878,965.68,916.87,11.40
3.875505,964.17,922.34,11.30
3.891132,969.15,934.09,12.64
3.906759,969.23,929.96,17.84
3.922386,959.75,924.50,10.48
3.938013,965.54,927.87,18.64
3.953640,953.82,910.44,16.90
3.969267,947.98,906.80,19.84
3.984894,942.29,897.61,15.43
4.000521,931.46,886.48,14.49
4.016148,922.18,881.14,16.53
4.031775,920.58,875.63,15.25
4.047402,912.29,857.00,16.12
4.063029,907.64,848.94,15.60
4.078656,900.62,846.87,14.48
4.094283,898.60,843.50,14.91
4.109910,900.71,839.61,17.51
4.125537,891.06,838.97,11.01
4.141164,889.19,836.12,17.13
4.156791,894.34,831.38,14.53
4.172418,880.37,824.08,14.29
4.188045,885.41,824.97,15.39
4.203672,879.13,817.17,17.78
4.219299,879.64,814.56,12.53
4.234926,869.96,807.20,17.83
4.250553,864.38,804.92,12.83
4.266180,858.66,798.99,17.09
4.281808,856.70,798.63,11.83
4.297435,855.87,796.77,16.28
4.313062,857.52,801.53,16.89
4.328689,860.76,804.55,15.63
4.344316,865.83,809.23,15.86
4.359943,877.79,813.12,15.29
4.375570,887.80,824.40,14.47
4.391197,890.60,836.66,13.38
4.406824,908.43,853.06,11.99
4.422451,915.77,864.70,13.86
4.438078,927.14,880.20,13.14
4.453705,941.07,895.50,17.27
4.469332,945.12,904.10,14.40
4.484959,960.26,922.58,15.82
4.500586,960.33,921.78,14.19
4.516213,962.57,931.04,16.79
4.531840,957.55,927.62,16.62
4.547467,970.46,927.24,16.56
4.563094,961.76,926.72,12.57
4.578721,955.81,925.73,14.52
4.594348,950.27,910.58,17.31
4.609975,944.22,902.51,16.55
4.625602,931.76,891.16,11.61
4.641229,921.09,880.85,14.89
4.656856,923.54,876.58,16.58
4.672483,917.90,861.36,13.41
4.688110,909.34,862.15,16.25
4.703737,904.81,848.77,12.97
4.719365,897.57,851.32,13.21
4.734992,900.63,845.00,16.16
4.750619,895.85,842.77,12.70
4.766246,889.71,839.67,14.65
4.781873,892.88,835.25,17.28
4.797500,886.29,830.33,15.17
4.813127,883.17,828.62,12.26
4.828754,881.33,823.24,16.16
4.844381,877.55,817.92,16.69
4.860008,868.78,813.22,15.05
4.875635,863.54,807.96,12.18
4.891262,862.71,801.36,15.35
4.906889,858.28,796.11,13.63
4.922516,854.73,795.18,19.87
4.938143,853.39,795.20,14.14
4.953770,865.08,803.23,12.82
4.969397,858.94,801.01,17.36
4.985024,868.70,812.00,15.36
5.000651,876.38,821.71,14.64
5.016278,887.58,832.41,17.33
5.031905,895.55,845.91,12.53
5.047532,909.40,860.18,15.72
5.063159,919.76,877.53,15.62
5.078786,930.98,888.57,12.90
5.094413,939.02,907.01,14.57
5.110040,950.82,916.99,12.70
5.125667,961.28,918.30,12.21
5.141294,964.21,926.37,13.67
5.156921,961.67,929.08,13.33
5.172549,964.49,925.52,13.56
5.188176,967.48,927.56,16.58
5.203803,958.55,924.01,16.54
5.219430,952.28,915.29,13.86
5.235057,948.83,905.28,17.64
5.250684,941.14,900.02,13.72
5.266311,931.16,887.93,14.98
5.281938,923.55,879.04,15.45
5.297565,913.50,869.40,13.34
5.313192,916.92,862.10,16.33
5.328819,910.79,856.07,9.43
5.344446,902.87,849.26,15.57
5.360073,896.52,844.70,10.73
5.375700,900.95,843.13,17.26
5.391327,895.59,840.99,10.94
5.406954,890.82,834.57,13.87
5.422581,890.82,839.64,13.93
5.438208,888.64,832.25,15.43
5.453835,883.06,825.02,14.13
5.469462,875.99,817.10,15.00
5.485089,878.05,813.00,17.32
5.500716,868.65,807.46,15.01
5.516343,867.12,802.54,18.68
5.531970,860.23,800.44,16.36
5.547597,860.36,796.23,14.80
5.563224,860.05,802.00,17.88
5.578851,860.63,801.16,14.19
5.594478,865.28,802.79,14.94
5.610105,869.85,813.33,15.85
5.625733,876.26,817.10,16.91
5.641360,877.73,826.85,10.24
5.656987,891.09,839.00,16.03
5.672614,907.64,855.32,16.30
5.688241,916.67,869.28,15.78
5.703868,930.48,880.93,16.18
5.719495,946.03,896.16,13.75
5.735122,951.97,910.93,16.69
5.750749,957.84,916.39,13.89
5.766376,967.68,929.00,15.18
5.782003,969.10,933.88,11.58
5.797630,965.70,927.92,14.85
5.813257,969.72,929.68,14.22
5.828884,959.94,926.67,15.87
5.844511,960.54,919.52,14.45
5.860138,950.91,911.43,17.38
5.875765,946.86,904.11,13.42
5.891392,935.99,893.45,12.79
5.907019,931.10,884.20,14.64
5.922646,926.52,873.18,16.49
5.938273,917.04,868.73,17.38
5.953900,911.97,858.55,17.60
5.969527,910.54,851.86,14.92
5.985154,899.64,848.94,19.53
6.000781,902.74,844.71,14.36
6.016408,897.91,837.74,15.30
6.032035,894.44,840.80,15.27
6.047662,887.07,836.95,18.73
6.063289,887.19,830.16,14.90
6.078917,885.53,823.34,13.98
6.094544,883.37,825.06,15.23
6.110171,884.03,818.90,15.38
6.125798,876.11,811.25,13.44
6.141425,874.49,804.69,12.85
6.157052,860.59,806.63,17.56
6.172679,857.87,799.07,16.18
6.188306,861.24,801.95,12.86
6.203933,861.15,797.00,13.74
6.219560,861.49,807.40,15.12
6.235187,868.56,804.03,14.62
6.250814,871.20,807.19,15.00
6.266441,874.15,817.91,15.79
6.282068,884.86,833.26,13.46
6.297695,898.99,848.81,18.75
6.313322,910.83,862.69,16.27
6.328949,922.65,871.47,13.26
6.344576,933.52,883.35,17.10
6.360203,941.73,903.84,14.55
6.375830,957.64,910.08,10.81
6.391457,963.39,920.18,14.92
6.407084,965.61,924.74,13.47
6.422711,967.26,933.60,16.16
6.438338,962.70,931.10,16.38
6.453965,966.32,931.23,17.38
6.469592,956.12,924.19,19.55
6.485219,959.64,915.81,16.58
6.500846,952.10,904.46,18.04
6.516473,946.25,897.06,14.58
6.532101,934.80,890.29,14.88
6.547728,931.11,876.44,15.20
6.563355,925.56,876.89,14.47
6.578982,919.02,860.89,17.16
6.594609,908.54,860.56,15.74
6.610236,906.99,851.32,14.51
6.625863,905.15,846.09,16.94
6.641490,892.62,844.04,16.61
6.657117,896.70,841.96,14.64
6.672744,893.77,837.80,17.00
6.688371,885.16,830.60,18.72
6.703998,891.60,827.58,15.67
6.719625,886.20,824.64,16.72
6.735252,873.35,823.36,17.67
6.750879,872.21,808.03,16.98
6.766506,870.80,812.85,17.52
6.782133,870.61,809.23,17.35
6.797760,866.97,804.76,14.44
6.813387,861.34,797.66,15.02
6.829014,856.35,795.12,15.91
6.844641,860.41,796.48,11.65
6.860268,863.72,804.56,16.39
6.875895,869.02,800.37,13.14
6.891522,877.78,817.84,13.45
6.907149,887.26,821.98,15.40
6.922776,889.09,836.53,15.35
6.938403,906.22,850.06,14.24
6.954030,915.43,865.76,13.48
6.969658,927.90,885.47,15.48
6.985285,938.22,893.27,13.95
7.000912,948.67,911.60,13.19
7.016539,957.03,918.98,14.44
7.032166,961.71,928.06,14.10
7.047793,964.69,931.09,15.62
7.063420,970.06,930.10,10.98
7.079047,966.11,931.56,16.16
7.094674,962.66,926.05,15.37
7.110301,958.76,916.58,17.25
7.125928,955.43,912.19,13.51
7.141555,944.24,902.07,18.75
7.157182,936.56,891.56,18.33
7.172809,936.72,885.52,18.57
7.188436,927.42,869.92,14.69
7.204063,920.36,861.59,14.50
7.219690,915.28,859.43,13.96
7.235317,908.13,856.21,13.82
7.250944,901.59,847.45,13.09
7.266571,905.92,852.24,17.14
7.282198,900.62,844.62,12.55
7.297825,890.67,839.34,14.75
7.313452,894.15,835.22,13.75
7.329079,891.61,829.43,14.72
7.344706,882.11,828.95,17.53
7.360333,878.49,821.82,19.00
7.375960,876.37,817.16,14.05
7.391587,876.90,813.58,13.57
7.407214,867.73,807.16,15.10
7.422842,861.41,800.71,16.82
7.438469,862.34,800.36,13.32
7.454096,861.61,798.05,14.80
7.469723,860.51,794.43,16.57
7.485350,862.86,797.25,14.79
7.500977,872.53,801.33,15.63
7.516604,875.42,811.24,12.65
7.532231,875.36,820.30,18.11
7.547858,888.29,832.47,14.33
7.563485,893.03,841.70,13.95
7.579112,910.94,859.42,17.27
7.594739,921.96,874.17,15.02
7.610366,933.55,889.91,12.94
7.625993,942.50,900.80,14.66
7.641620,956.25,910.33,17.01
7.657247,960.80,922.23,14.64
7.672874,968.00,933.11,12.22
7.688501,967.16,932.50,15.08
7.704128,969.18,931.05,17.93
7.719755,964.40,927.94,12.37
7.735382,960.65,922.86,17.51
7.751009,959.18,906.73,16.62
7.766636,954.97,902.86,20.52
7.782263,936.98,899.37,15.19
7.797890,928.89,887.83,15.98
7.813517,924.63,877.16,17.87
7.829144,919.16,868.42,16.25
7.844771,917.91,864.04,12.28
7.860398,904.94,854.31,14.50
7.876026,905.50,851.39,13.96
7.891653,900.46,847.66,16.56
7.907280,897.36,834.84,15.41
7.922907,892.01,841.97,13.84
7.938534,896.01,835.28,14.45
7.954161,882.63,830.17,16.56
7.969788,890.82,831.16,14.26
7.985415,882.71,821.16,18.58
8.001042,879.39,819.13,15.79
8.016669,875.04,813.36,16.02
8.032296,873.69,810.02,14.70
8.047923,862.25,802.03,14.74
8.063550,857.51,799.91,16.64
8.079177,858.85,791.53,16.04
8.094804,865.71,800.32,14.67
8.110431,858.20,799.12,16.37
8.126058,862.06,801.03,15.00
8.141685,872.17,800.05,15.11
8.157312,876.81,813.54,16.61
8.172939,884.70,823.01,17.73
8.188566,891.38,839.52,14.63
8.204193,905.14,849.17,15.04
8.219820,924.02,863.12,13.09
8.235447,929.09,873.71,11.55
8.251074,937.88,891.35,14.15
8.266701,951.76,905.77,15.53
8.282328,959.99,913.26,13.85
8.297955,967.09,924.07,13.93
8.313582,967.21,927.00,14.96
8.329210,970.18,926.85,13.74
8.344837,964.71,931.08,17.07
8.360464,963.73,926.42,13.83
8.376091,957.78,919.45,14.23
8.391718,951.53,910.01,14.91
8.407345,942.63,898.89,17.31
8.422972,938.97,894.86,15.87
8.438599,931.07,885.13,12.92
8.454226,918.14,873.57,14.44
8.469853,917.19,866.34,12.67
8.485480,912.61,858.63,11.58
8.501107,907.45,851.58,16.23
8.516734,905.78,847.30,11.67
8.532361,901.16,845.02,17.05
8.547988,889.50,844.22,14.73
8.563615,896.55,841.13,13.22
8.579242,894.68,832.27,15.46
8.594869,890.95,825.19,16.41
8.610496,883.91,827.78,12.55
8.626123,879.62,816.99,13.82
8.641750,882.08,818.08,12.55
8.657377,874.67,809.90,15.20
8.673004,869.46,801.63,15.17
8.688631,864.60,803.00,16.63
8.704258,861.63,799.27,15.49
8.719885,863.64,794.95,15.98
8.735512,860.61,796.91,17.00
8.751139,863.07,795.62,16.23
8.766767,862.64,796.29,15.01
8.782394,871.02,810.76,16.18
8.798021,883.60,816.57,14.35
8.813648,885.77,831.08,14.30
8.829275,903.88,841.01,12.19
8.844902,914.31,856.95,13.41
8.860529,922.58,869.79,13.39
8.876156,933.10,885.12,12.55
8.891783,940.74,903.22,13.87
8.907410,951.52,912.60,18.16
8.923037,959.80,921.94,13.47
8.938664,971.68,922.18,11.80
8.954291,967.77,926.20,15.75
8.969918,970.68,931.07,15.36
8.985545,966.53,926.90,17.49
9.001172,962.47,916.66,19.75
9.016799,950.30,919.21,13.19
9.032426,952.76,907.96,15.54
9.048053,943.61,900.48,13.24
9.063680,931.47,888.11,15.79
9.079307,924.26,881.77,12.20
9.094934,920.22,872.26,15.06
9.110561,913.91,864.39,14.72
9.126188,908.65,852.81,17.04
9.141815,902.86,846.72,15.68
9.157442,901.67,842.85,13.97
9.173069,896.76,848.14,14.77
9.188696,901.36,841.99,14.53
9.204323,896.29,838.37,14.67
9.219951,891.51,830.83,10.50
9.235578,887.41,825.15,11.03
9.251205,885.73,821.19,13.96
9.266832,873.84,816.30,15.86
9.282459,879.67,812.80,15.33
9.298086,870.22,808.20,13.31
9.313713,867.21,805.99,12.78
9.329340,862.36,794.41,15.76
9.344967,862.10,797.87,15.76
9.360594,858.39,790.86,13.60
9.376221,863.57,794.41,14.20
9.391848,863.68,796.56,10.39
9.407475,869.79,806.37,16.05
9.423102,871.96,812.50,12.83
9.438729,881.75,821.43,13.53
9.454356,894.38,833.88,17.09
9.469983,900.53,848.34,13.81
9.485610,914.60,859.29,16.55
9.501237,926.72,880.88,11.65
9.516864,937.49,888.85,15.71
9.532491,941.53,906.92,13.77
9.548118,958.59,911.72,16.47
9.563745,958.86,923.17,14.09
9.579372,966.09,926.92,13.14
9.594999,969.93,932.34,14.27
9.610626,969.83,929.40,16.17
9.626253,961.90,916.59,14.71
9.641880,955.06,921.30,13.66
9.657507,951.41,909.57,12.20
9.673135,945.63,901.23,15.09
9.688762,935.14,887.66,13.09
9.704389,931.07,878.88,16.26
9.720016,926.13,871.51,18.00
9.735643,917.46,867.49,15.32
9.751270,915.06,859.83,18.50
9.766897,908.14,852.27,16.30
9.782524,902.21,845.94,16.87
9.798151,895.97,845.97,12.55
9.813778,892.91,843.78,15.60
9.829405,890.59,839.94,17.02
9.845032,890.03,834.17,14.32
9.860659,886.35,830.26,16.08
9.876286,888.01,829.67,17.28
9.891913,885.64,821.58,16.61
9.907540,874.76,816.85,15.99
9.923167,874.25,807.68,15.67
9.938794,869.46,809.30,11.93
9.954421,865.15,797.13,15.77
9.970048,860.11,793.60,18.99
9.985675,865.01,794.93,13.11
10.001302,856.08,796.48,19.85
10.016929,852.23,794.81,17.08
10.032556,865.10,802.60,12.61
10.048183,866.31,805.17,15.51
10.063810,873.66,816.53,14.33
10.079437,884.60,825.79,17.73
10.095064,897.03,843.88,12.04
10.110691,910.27,855.52,10.81
10.126319,917.53,874.58,15.68
10.141946,936.26,891.45,16.64
10.157573,943.07,898.22,15.95
10.173200,953.46,914.84,15.14
10.188827,959.76,918.92,17.02
10.204454,964.22,928.43,14.95
10.220081,962.43,928.41,13.17
10.235708,968.57,926.99,12.56
10.251335,963.38,926.79,14.61
10.266962,958.08,921.14,16.52
10.282589,957.06,918.49,17.16
10.298216,949.47,906.11,16.31
10.313843,938.29,889.46,16.85
10.329470,941.05,884.15,17.17
10.345097,925.34,875.96,13.49
10.360724,922.68,867.13,16.93
10.376351,909.86,861.26,14.07
10.391978,906.77,849.95,13.68
10.407605,904.91,847.82,11.50
10.423232,900.18,841.07,10.16
10.438859,893.48,842.32,14.24
10.454486,895.95,840.47,13.63
10.470113,890.78,831.91,15.23
10.485740,887.00,835.47,16.65
10.501367,884.37,830.64,13.54
10.516994,885.49,816.77,13.99
10.532621,878.10,815.58,14.90
10.548248,873.25,816.34,15.26
10.563876,866.88,806.67,14.40
10.579503,867.29,799.84,9.93
10.595130,863.69,800.22,14.40
10.610757,856.80,796.26,15.50
10.626384,861.87,791.44,16.31
10.642011,860.26,796.04,14.15
10.657638,857.97,798.09,12.44
10.673265,868.11,803.72,15.37
10.688892,878.37,817.67,16.14
10.704519,883.70,820.47,17.12
10.720146,886.56,834.41,13.14
10.735773,900.51,848.70,15.04
10.751400,914.90,861.61,14.05
10.767027,924.26,876.00,15.24
10.782654,937.97,887.76,11.78
10.798281,946.40,902.29,14.13
10.813908,961.61,915.12,18.21
10.829535,962.55,920.08,16.00
10.845162,960.78,925.89,14.37
10.860789,965.86,928.82,15.47
10.876416,968.33,925.57,17.74
10.892043,963.21,927.98,16.84
10.907670,957.63,922.15,14.02
10.923297,956.71,907.63,16.24
10.938924,943.87,901.08,15.16
10.954551,932.93,891.95,12.44
10.970178,923.44,882.54,12.66
10.985805,924.70,871.13,18.23
11.001432,917.99,866.06,13.66
11.017060,904.99,858.26,12.25
11.032687,906.17,854.19,18.36
11.048314,897.59,850.91,12.17
11.063941,896.46,841.01,15.70
11.079568,894.52,840.24,14.08
11.095195,888.19,834.24,10.32
11.110822,890.32,833.50,12.45
11.126449,883.78,831.45,13.75
11.142076,884.84,823.15,12.09
11.157703,880.93,816.67,16.30
11.173330,872.25,815.20,15.82
11.188957,863.99,808.23,13.89
11.204584,868.04,803.66,16.59
11.220211,861.75,797.20,15.97
11.235838,865.46,792.40,16.18
11.251465,858.72,791.55,16.76
11.267092,856.52,794.00,15.13
11.282719,859.85,791.33,16.01
11.298346,860.06,794.10,15.03
11.313973,864.97,804.42,16.44
11.329600,873.51,813.18,15.04
11.345227,885.54,833.15,12.91
11.360854,893.88,835.86,15.11
11.376481,914.83,853.30,18.42
11.392108,916.43,865.59,18.67
11.407735,932.26,881.74,15.20
11.423362,939.63,897.30,16.85
11.438989,949.84,905.19,14.58
11.454616,956.04,915.29,16.13
11.470244,961.49,919.64,11.72
11.485871,961.23,927.19,12.69
11.501498,965.72,924.42,13.38
11.517125,958.88,927.74,11.37
11.532752,954.07,919.83,9.55
11.548379,957.35,914.54,16.08
11.564006,942.77,905.11,13.47
11.579633,936.23,894.92,13.90
11.595260,935.86,887.53,13.41
11.610887,922.10,879.69,12.10
11.626514,916.49,865.11,13.71
11.642141,908.68,857.22,12.60
11.657768,902.72,854.57,14.96
11.673395,898.22,852.59,15.33
11.689022,902.20,844.45,13.69
11.704649,900.72,835.40,14.63
11.720276,892.87,834.71,12.44
11.735903,886.24,840.09,15.24
11.751530,886.44,826.18,15.67
11.767157,888.08,823.67,13.45
11.782784,883.33,814.65,18.10
11.798411,876.44,817.12,13.57
11.814038,872.68,810.76,13.57
11.829665,866.39,805.52,10.81
11.845292,862.15,798.69,16.08
11.860919,864.48,799.71,13.97
11.876546,862.43,789.93,13.63
11.892173,855.31,793.00,17.20
11.907800,853.98,794.29,15.54
11.923428,858.40,793.04,17.22
11.939055,857.65,797.20,15.59
11.954682,871.36,813.96,18.60
11.970309,881.45,821.22,12.07
11.985936,887.19,834.11,13.05
12.001563,900.41,845.61,13.79
12.017190,914.58,859.25,18.32
12.032817,919.25,877.61,14.75
12.048444,929.86,889.03,15.02
12.064071,944.61,905.16,15.51
12.079698,951.03,912.16,17.03
12.095325,959.35,913.69,14.49
12.110952,958.65,923.93,17.30
12.126579,966.10,924.09,15.99
12.142206,974.55,927.77,12.38
12.157833,960.54,917.15,17.35
12.173460,952.72,910.78,14.53
12.189087,944.73,910.64,13.75
12.204714,946.37,894.24,16.41
12.220341,933.01,888.08,13.38
12.235968,924.93,878.26,17.48
12.251595,918.79,864.56,16.42
12.267222,913.23,860.57,16.23
12.282849,910.03,853.62,14.53
12.298476,905.89,846.53,13.38
12.314103,898.18,846.36,15.90
12.329730,897.93,836.23,15.43
12.345357,891.39,836.29,18.34
12.360985,894.50,833.53,12.97
12.376612,892.08,823.74,13.65
12.392239,885.38,824.32,16.52
12.407866,877.12,825.87,14.18
12.423493,876.32,816.38,14.17
12.439120,873.01,809.27,15.32
12.454747,866.86,802.34,14.94
12.470374,865.13,800.97,14.95
12.486001,862.20,794.72,11.24
12.501628,859.99,796.69,14.21
12.517255,859.97,798.06,18.21
12.532882,860.75,794.26,11.19
12.548509,860.50,791.44,11.50
12.564136,861.34,796.45,16.63
12.579763,869.65,808.28,12.19
12.595390,869.64,809.67,14.76
12.611017,883.65,829.84,13.43
12.626644,891.17,839.76,16.71
12.642271,903.26,844.45,15.15
12.657898,913.03,860.01,11.65
12.673525,920.98,878.08,17.06
12.689152,937.07,895.75,13.25
12.704779,949.53,902.57,15.55
12.720406,958.27,914.27,16.16
12.736033,958.35,919.39,16.45
12.751660,966.13,925.39,17.51
12.767287,964.38,922.95,15.43
12.782914,953.17,920.49,16.53
12.798541,959.99,917.41,12.85
12.814169,957.80,911.48,14.88
12.829796,949.39,902.84,13.46
12.845423,931.18,904.01,18.26
12.861050,929.73,886.14,16.49
12.876677,922.43,876.36,15.28
12.892304,917.26,860.06,13.04
12.907931,908.42,856.48,13.89
12.923558,900.70,851.83,15.79
12.939185,900.19,841.25,17.14
12.954812,903.52,845.40,17.21
12.970439,894.08,839.60,14.98
12.986066,890.91,837.84,14.86
13.001693,889.27,830.81,14.12
13.017320,884.04,828.68,13.29
13.032947,885.86,822.88,15.19
13.048574,883.76,825.26,14.26
13.064201,876.76,816.77,13.51
13.079828,867.50,820.89,15.30
13.095455,864.98,805.86,16.83
13.111082,863.47,797.57,19.25
13.126709,858.11,796.16,13.87
13.142336,853.26,792.92,15.59
13.157963,860.01,790.98,14.10
13.173590,856.81,793.85,15.28
13.189217,858.77,794.27,13.24
13.204844,868.87,793.15,13.86
13.220471,866.86,806.07,18.07
13.236098,876.78,815.19,16.19
13.251725,883.52,829.55,12.63
13.267353,893.46,839.23,16.37
13.282980,909.91,861.34,12.08
13.298607,920.22,870.73,17.12
13.314234,931.17,886.30,15.37
13.329861,942.77,897.61,15.90
13.345488,948.87,914.00,14.40
13.361115,955.28,918.12,17.33
13.376742,962.46,923.88,12.58
13.392369,960.85,928.96,16.36
13.407996,959.23,923.21,14.52
13.423623,959.74,921.01,16.08
13.439250,952.01,915.16,12.29
13.454877,953.47,906.07,10.61
13.470504,938.74,896.79,16.14
13.486131,937.34,887.49,12.22
13.501758,923.21,875.57,13.32
13.517385,922.83,868.05,17.42
13.533012,911.73,859.38,14.97
13.548639,907.09,853.47,16.92
13.564266,898.02,846.53,14.89
13.579893,899.64,841.88,11.37
13.595520,892.06,840.54,16.08
13.611147,889.11,834.29,14.71
13.626774,892.86,834.10,13.46
13.642401,891.65,826.43,14.61
13.658028,877.16,824.25,16.11
13.673655,879.46,817.93,14.87
13.689282,880.03,812.51,13.34
13.704909,877.09,808.11,11.72
13.720537,865.42,804.89,14.18
13.736164,866.26,794.43,17.14
13.751791,859.09,789.28,11.53
13.767418,853.80,788.68,15.69
13.783045,850.76,791.28,17.66
13.798672,851.13,784.68,13.10
13.814299,858.52,787.43,15.88
13.829926,859.53,789.87,18.03
13.845553,863.40,799.63,16.79
13.861180,871.91,810.83,13.13
13.876807,875.99,828.01,19.33
13.892434,891.20,833.41,15.38
13.908061,897.76,845.89,15.68
13.923688,913.42,858.95,18.42
13.939315,929.88,883.14,13.31
13.954942,935.79,887.93,17.53
13.970569,944.11,898.66,18.40
13.986196,951.68,906.66,15.27
14.001823,951.79,917.23,16.32
14.017450,962.49,923.90,15.18
14.033077,965.05,934.25,12.23
14.048704,960.33,923.99,14.58
14.064331,954.18,917.39,13.74
14.079958,949.78,908.81,16.16
14.095585,943.70,901.25,15.88
14.111212,932.61,892.38,13.74
14.126839,925.81,882.26,19.22
14.142466,922.57,879.00,12.04
14.158094,912.35,869.60,17.19
14.173721,906.68,853.62,15.27
14.189348,904.48,853.96,14.32
14.204975,899.96,849.42,14.29
14.220602,893.16,842.06,16.10
14.236229,889.24,837.96,15.73
14.251856,888.38,832.37,16.44
14.267483,888.14,829.77,16.15
14.283110,881.45,821.71,16.85
14.298737,884.69,820.53,16.14
14.314364,876.62,809.24,15.86
14.329991,874.57,819.26,15.09
14.345618,865.71,807.08,16.85
14.361245,867.13,801.97,15.90
14.376872,859.01,796.90,13.26
14.392499,854.56,793.81,13.38
14.408126,849.23,792.35,17.89
14.423753,854.02,791.27,15.87
14.439380,852.26,794.32,15.62
14.455007,855.21,794.33,16.06
14.470634,855.93,795.71,16.59
14.486261,862.96,800.28,16.01
14.501888,867.31,815.70,16.19
14.517515,880.31,820.05,9.89
14.533142,889.13,841.44,16.89
14.548769,902.10,853.75,13.81
14.564396,918.26,867.72,11.54
14.580023,928.58,882.37,15.63
14.595650,935.28,892.72,15.62
14.611278,943.02,905.54,14.66
14.626905,953.33,915.13,14.47
14.642532,961.62,914.13,17.50
14.658159,958.00,920.71,14.68
14.673786,961.89,919.67,13.98
14.689413,956.80,914.26,13.70
14.705040,952.62,914.04,12.21
14.720667,944.84,907.50,15.67
14.736294,942.66,893.13,13.81
14.751921,930.34,889.01,18.71
14.767548,919.24,875.70,12.57
14.783175,918.45,868.43,15.96
14.798802,908.31,862.65,16.32
14.814429,904.30,854.81,17.42
14.830056,895.54,847.56,19.61
14.845683,894.24,843.70,13.66
14.861310,895.83,840.27,15.63
14.876937,885.64,830.15,13.00
14.892564,886.32,829.68,15.08
14.908191,881.24,825.40,15.99
14.923818,880.76,821.07,13.09
14.939445,878.11,818.84,15.72
14.955072,874.43,815.38,12.14
14.970699,869.11,811.74,17.36
14.986326,866.38,804.26,16.53
15.001953,860.45,800.58,16.22
15.017580,858.11,797.06,14.83
15.033207,854.26,790.13,14.60
15.048834,852.71,784.20,13.74
15.064462,848.04,787.80,15.85
15.080089,850.43,792.57,16.70
15.095716,855.02,789.84,17.70
15.111343,858.45,800.67,16.92
15.126970,866.64,806.41,16.42
15.142597,873.76,818.63,11.94
15.158224,879.19,825.41,13.78
15.173851,897.39,842.58,14.79
15.189478,904.86,864.05,16.35
15.205105,924.30,874.22,16.10
15.220732,928.67,881.07,14.41
15.236359,939.22,894.53,14.49
15.251986,953.62,909.20,12.95
15.267613,955.71,916.84,15.53
15.283240,953.38,916.14,18.02
15.298867,958.18,924.91,15.83
15.314494,955.35,917.21,15.38
15.330121,952.58,909.98,13.35
15.345748,946.08,908.91,15.33
15.361375,947.64,907.41,16.70
15.377002,935.20,894.39,16.51
15.392629,929.50,879.73,14.53
15.408256,918.71,875.76,12.99
15.423883,912.45,860.11,15.75
15.439510,905.24,855.08,13.31
15.455137,902.68,849.00,15.93
15.470764,888.78,842.81,13.88
15.486391,895.15,832.45,17.35
15.502018,885.42,828.12,14.97
15.517646,885.29,831.30,14.68
15.533273,882.79,825.71,16.27
15.548900,881.49,825.49,14.59
15.564527,881.31,826.00,16.85
15.580154,879.61,814.90,14.76
15.595781,869.62,815.29,15.87
15.611408,865.09,805.87,15.20
15.627035,859.05,798.85,16.93
15.642662,858.18,799.50,15.31
15.658289,846.91,795.00,11.93
15.673916,845.49,789.48,16.80
15.689543,849.64,783.12,16.11
15.705170,850.09,786.70,13.14
15.720797,855.51,785.30,15.79
15.736424,854.29,795.13,17.80
15.752051,858.05,799.96,11.87
15.767678,869.92,809.08,13.38
15.783305,876.40,820.75,12.92
15.798932,888.04,833.07,17.58
15.814559,898.96,849.44,15.76
15.830186,906.81,867.88,12.33
15.845813,920.25,876.93,16.66
15.861440,934.61,889.98,15.73
15.877067,941.00,902.33,14.00
15.892694,948.91,908.52,16.60
15.908321,955.03,915.40,13.61
15.923948,953.74,913.39,15.49
15.939575,953.07,921.65,15.83
15.955203,957.16,917.70,11.96
15.970830,947.73,916.02,11.05
15.986457,944.17,903.13,14.85
16.002084,935.02,903.66,13.71
16.017711,927.57,885.72,18.98
16.033338,920.79,875.81,16.06
16.048965,916.99,869.75,12.75
16.064592,911.73,859.44,17.83
16.080219,903.55,854.23,13.32
16.095846,900.47,837.65,16.49
16.111473,896.43,839.12,13.47
16.127100,892.87,834.64,18.08
16.142727,884.93,828.89,15.02
16.158354,883.89,825.34,15.20
16.173981,881.19,827.67,17.40
16.189608,878.87,817.34,16.89
16.205235,875.88,817.78,12.52
16.220862,869.74,808.80,12.84
16.236489,871.38,811.64,15.93
16.252116,861.42,801.66,17.89
16.267743,866.02,798.84,15.66
16.283370,855.10,793.77,14.46
16.298997,853.67,787.57,17.55
16.314624,849.74,791.30,12.27
16.330251,844.61,781.79,13.52
16.345878,849.95,786.34,16.58
16.361505,848.07,787.01,17.04
16.377132,855.15,790.82,16.98
16.392759,862.91,807.44,13.69
16.408387,871.57,815.22,14.63
16.424014,882.49,827.40,14.85
16.439641,896.30,843.79,16.28
16.455268,902.93,856.74,13.46
16.470895,918.89,870.67,16.17
16.486522,924.04,880.54,15.21
16.502149,936.74,894.33,11.83
16.517776,944.66,903.66,14.58
16.533403,950.83,914.26,17.54
16.549030,952.10,916.43,17.12
16.564657,955.26,915.08,15.06
16.580284,946.60,919.82,14.30
16.595911,947.88,913.16,16.82
16.611538,946.82,902.96,14.76
16.627165,938.38,905.49,13.99
16.642792,934.67,890.10,16.97
16.658419,926.36,879.62,12.95
16.674046,916.89,876.34,15.18
16.689673,911.72,861.91,13.03
16.705300,903.22,858.09,15.30
16.720927,897.80,850.69,11.93
16.736554,893.43,838.02,15.40
16.752181,887.61,830.54,16.50
16.767808,884.76,834.26,16.09
16.783435,882.33,824.18,17.29
16.799062,879.01,823.56,15.13
16.814689,876.48,825.76,14.91
16.830316,874.92,818.41,13.86
16.845943,875.57,817.07,17.65
16.861571,872.10,810.82,15.73
16.877198,864.05,802.50,18.30
16.892825,863.51,797.41,20.60
16.908452,853.59,793.45,13.55
16.924079,851.03,789.63,12.49
16.939706,851.39,787.44,15.27
16.955333,843.36,781.35,17.62
16.970960,849.64,783.95,16.90
16.986587,854.23,787.24,13.12
17.002214,850.15,789.00,16.06
17.017841,857.22,794.15,14.17
17.033468,867.53,813.73,15.19
17.049095,877.94,820.32,14.36
17.064722,886.04,828.69,13.55
17.080349,894.69,844.58,12.68
17.095976,908.73,857.21,16.55
17.111603,918.24,875.05,16.76
17.127230,929.30,892.46,16.28
17.142857,939.68,901.38,19.97
17.158484,948.72,908.60,16.56
17.174111,949.54,912.99,12.99
17.189738,951.61,917.50,19.41
17.205365,952.09,910.41,15.71
17.220992,959.17,915.03,16.11
17.236619,948.41,919.94,15.35
17.252246,942.62,904.61,16.50
17.267873,931.25,895.84,15.29
17.283500,926.03,888.88,16.88
17.299127,918.21,876.42,12.52
17.314755,912.05,868.77,12.95
17.330382,909.54,860.56,16.67
17.346009,900.65,850.46,13.41
17.361636,894.95,842.31,14.60
17.377263,889.94,838.77,13.53
17.392890,883.48,835.06,16.04
17.408517,883.76,829.29,15.20
17.424144,878.97,825.52,14.59
17.439771,877.32,825.85,15.81
17.455398,876.44,819.66,15.26
17.471025,872.20,818.72,13.49
17.486652,872.84,812.08,15.17
17.502279,869.95,806.98,13.67
17.517906,860.52,802.22,14.35
17.533533,858.15,792.23,13.92
17.549160,848.67,789.99,13.51
17.564787,848.24,787.32,15.32
17.580414,844.82,785.70,15.98
17.596041,841.93,776.11,16.49
17.611668,844.76,790.54,14.74
17.627295,847.47,783.58,15.65
17.642922,854.25,787.16,11.13
17.658549,861.89,801.83,11.23
17.674176,873.75,811.06,13.34
17.689803,879.39,820.86,16.32
17.705430,883.99,836.51,14.20
17.721057,902.01,847.72,15.04
17.736684,918.99,866.88,14.60
17.752311,925.93,877.74,14.70
17.767939,936.67,893.89,16.84
17.783566,943.20,901.06,15.16
17.799193,948.75,903.77,15.36
17.814820,944.56,917.84,14.85
17.830447,951.37,917.94,17.09
17.846074,953.81,912.84,14.66
17.861701,952.52,909.75,17.67
17.877328,947.34,902.27,12.65
17.892955,941.03,901.72,13.66
17.908582,930.14,888.44,15.38
17.924209,920.74,879.82,15.19
17.939836,917.38,871.62,18.52
17.955463,912.56,865.88,16.69
17.971090,902.04,855.40,14.16
17.986717,900.34,840.98,15.26
18.002344,889.73,839.82,13.57
18.017971,885.58,833.97,14.74
18.033598,887.96,830.32,14.74
18.049225,878.38,824.00,13.11
18.064852,878.40,821.85,15.09
18.080479,874.26,820.37,15.54
18.096106,874.84,820.99,13.22
18.111733,867.89,810.89,15.74
18.127360,870.25,811.85,15.45
18.142987,862.00,799.66,14.67
18.158614,857.13,794.43,19.56
18.174241,855.93,795.42,15.90
18.189868,851.06,789.50,12.81
18.205496,846.91,785.09,16.25
18.221123,842.86,783.38,13.05
18.236750,848.37,780.15,17.84
18.252377,847.49,782.59,13.32
18.268004,850.40,789.19,12.16
18.283631,856.80,793.86,15.29
18.299258,864.05,810.73,15.13
18.314885,874.41,814.45,14.68
18.330512,879.59,830.63,17.03
18.346139,891.00,842.17,10.04
18.361766,906.50,856.48,15.67
18.377393,918.04,873.76,12.78
18.393020,930.85,886.12,15.49
18.408647,936.10,894.58,15.19
18.424274,943.83,910.05,18.50
18.439901,951.24,916.42,14.33
18.455528,950.28,920.48,13.94
18.471155,953.91,917.75,14.92
18.486782,948.30,918.34,14.44
18.502409,944.51,904.58,14.68
18.518036,938.68,903.24,16.77
18.533663,935.93,896.18,12.72
18.549290,929.11,886.71,14.01
18.564917,921.38,877.86,13.33
18.580544,909.03,864.09,13.86
18.596171,902.41,854.18,16.42
18.611798,901.07,846.57,15.23
18.627425,893.83,844.34,14.77
18.643052,888.13,838.28,14.23
18.658680,887.30,834.37,16.44
18.674307,882.39,829.02,15.24
18.689934,879.68,830.08,16.61
18.705561,873.81,822.38,16.02
18.721188,873.69,819.77,19.94
18.736815,868.82,821.25,16.49
18.752442,867.84,811.20,16.48
18.768069,862.80,806.06,15.06
18.783696,863.48,797.83,16.21
18.799323,858.01,793.09,17.08
18.814950,854.28,791.63,14.14
18.830577,848.68,787.55,16.00
18.846204,844.29,780.77,17.61
18.861831,846.60,782.12,15.42
18.877458,845.07,779.95,16.74
18.893085,847.26,783.81,16.63
18.908712,850.10,790.02,16.41
18.924339,860.07,801.96,17.07
18.939966,864.26,811.67,13.50
18.955593,876.85,820.85,12.76
18.971220,889.06,830.49,15.42
18.986847,892.42,850.60,14.99
19.002474,905.65,863.62,14.13
19.018101,919.02,879.85,16.58
19.033728,928.73,894.56,16.50
19.049355,940.84,902.85,13.94
19.064982,944.05,910.55,11.97
19.080609,950.92,918.25,14.56
19.096236,951.85,918.32,15.03
19.111864,952.59,917.15,14.63
19.127491,946.20,913.62,15.85
19.143118,940.93,900.66,9.18
19.158745,941.20,903.81,11.33
19.174372,931.48,890.50,18.20
19.189999,922.11,881.78,17.83
19.205626,915.72,872.12,13.35
19.221253,904.25,866.30,15.55
19.236880,897.87,850.82,15.37
19.252507,893.62,850.28,15.32
19.268134,892.45,842.89,13.38
19.283761,881.86,835.77,12.53
19.299388,882.97,831.19,11.61
19.315015,877.15,827.17,12.34
19.330642,878.09,822.00,15.89
19.346269,871.84,819.01,14.81
19.361896,863.07,812.01,13.66
19.377523,863.20,816.00,15.63
19.393150,865.57,805.70,15.76
19.408777,859.64,804.32,13.31
19.424404,858.70,792.48,16.26
19.440031,848.49,792.21,15.29
19.455658,848.92,786.80,13.08
19.471285,846.40,786.54,16.29
19.486912,843.00,783.24,18.16
19.502539,849.16,781.39,14.72
19.518166,845.26,772.73,13.49
19.533793,847.54,784.34,16.07
19.549420,853.83,797.91,14.58
19.565048,858.20,802.25,12.71
19.580675,867.84,816.05,17.07
19.596302,875.04,827.58,18.48
19.611929,892.96,846.21,15.16
19.627556,902.58,854.33,13.33
19.643183,915.42,870.76,15.74
19.658810,925.09,881.43,15.68
19.674437,929.78,893.92,17.63
19.690064,943.48,904.73,13.62
19.705691,947.92,909.49,12.08
19.721318,948.80,912.66,13.27
19.736945,951.74,914.00,13.13
19.752572,947.73,917.85,11.32
19.768199,947.36,912.37,16.30
19.783826,938.73,903.94,17.06
19.799453,929.00,893.25,14.38
19.815080,924.55,884.81,17.88
19.830707,920.04,874.96,15.07
19.846334,910.74,866.24,16.65
19.861961,903.96,856.02,15.54
19.877588,899.49,847.17,13.57
19.893215,889.37,845.88,13.15
19.908842,884.82,840.84,18.79
19.924469,883.78,836.73,17.37
19.940096,884.26,826.42,13.00
19.955723,878.99,825.84,19.24
19.971350,877.50,825.39,13.01
19.986977,878.22,813.00,13.79
20.002605,870.03,815.79,12.20
20.018232,869.01,810.24,14.39
20.033859,856.49,807.90,16.79
20.049486,859.31,799.03,14.99
20.065113,854.36,796.31,12.34
20.080740,851.12,791.18,15.57
20.096367,843.21,790.03,17.11
20.111994,844.57,781.73,11.65
20.127621,843.14,779.16,14.45
20.143248,844.93,783.03,14.43
20.158875,844.67,784.50,15.52
20.174502,840.49,790.64,14.17
20.190129,858.03,797.93,13.75
20.205756,867.12,812.49,18.58
20.221383,869.29,818.00,15.17
20.237010,883.63,827.87,14.93
20.252637,893.89,839.07,14.90
20.268264,908.82,859.57,15.32
20.283891,912.45,869.23,13.97
20.299518,925.29,886.79,12.83
20.315145,937.35,891.90,15.56
20.330772,937.46,906.43,14.39
20.346399,944.57,915.00,12.40
20.362026,953.02,916.55,15.04
20.377653,950.71,914.31,15.79
20.393280,947.41,910.05,13.65
20.408907,944.12,911.72,16.40
20.424534,934.86,899.46,12.54
20.440161,929.84,882.78,12.57
20.455789,924.34,883.99,14.72
20.471416,912.65,871.58,18.10
20.487043,909.62,864.34,19.13
20.502670,900.60,848.84,14.00
20.518297,893.29,852.03,15.93
20.533924,888.79,838.01,14.29
20.549551,881.49,833.31,16.11
20.565178,882.25,829.90,13.49
20.580805,876.39,831.08,15.57
20.596432,875.49,824.33,18.20
20.612059,873.08,824.66,15.25
20.627686,869.65,815.79,15.79
20.643313,869.80,812.83,14.74
20.658940,865.24,804.85,14.65
20.674567,863.62,802.38,15.30
20.690194,853.46,797.91,12.52
20.705821,849.82,798.72,13.37
20.721448,849.29,786.66,13.93
20.737075,845.55,787.02,15.65
20.752702,842.49,784.10,12.51
20.768329,838.51,782.08,11.55
20.783956,843.92,778.93,14.26
20.799583,850.50,783.96,16.40
20.815210,850.63,791.66,16.95
20.830837,852.86,797.14,14.71
20.846464,866.39,804.72,14.31
20.862091,877.79,820.73,16.62
20.877718,886.87,837.51,18.65
20.893345,894.52,848.15,15.58
20.908973,906.87,867.42,15.50
20.924600,920.44,881.27,11.83
20.940227,937.43,888.66,14.28
20.955854,931.62,897.30,13.61
20.971481,941.66,908.92,13.65
20.987108,947.81,910.91,12.77
21.002735,952.72,916.50,16.72
21.018362,946.20,908.48,17.54
21.033989,948.75,912.08,14.08
21.049616,942.14,905.06,14.37
21.065243,940.73,902.01,14.78
21.080870,931.52,893.35,15.46
21.096497,916.64,883.21,14.32
21.112124,907.68,865.21,16.45
21.127751,904.18,863.45,19.11
21.143378,897.09,853.08,17.45
21.159005,894.75,849.87,14.18
21.174632,891.64,842.22,15.88
21.190259,876.25,835.29,17.62
21.205886,886.33,835.47,15.53
21.221513,882.28,825.33,21.25
21.237140,874.54,824.09,14.76
21.252767,874.68,821.26,15.25
21.268394,868.59,815.67,16.50
21.284021,863.12,809.63,12.99
21.299648,865.32,807.25,18.37
21.315275,862.98,802.54,14.53
21.330902,847.52,796.69,16.97
21.346529,851.55,790.67,14.91
21.362157,845.70,783.06,16.37
21.377784,846.36,782.63,14.80
21.393411,843.02,782.50,16.20
21.409038,845.09,783.12,15.50
21.424665,840.51,785.47,15.52
21.440292,849.06,791.30,14.78
21.455919,850.91,793.35,15.58
21.471546,859.64,800.14,16.95
21.487173,871.52,811.54,16.82
21.502800,880.64,822.66,15.95
21.518427,888.31,837.44,12.79
21.534054,898.92,853.55,12.03
21.549681,915.71,867.00,16.53
21.565308,925.11,881.07,13.94
21.580935,929.92,894.74,18.05
21.596562,940.62,900.12,17.01
21.612189,945.06,904.09,15.21
21.627816,947.86,915.66,15.40
21.643443,948.38,914.88,15.54
21.659070,948.45,918.95,16.64
21.674697,941.55,908.14,15.51
21.690324,940.48,907.07,17.28
21.705951,928.74,893.52,15.02
21.721578,924.32,884.56,16.05
21.737205,919.28,876.84,16.29
21.752832,910.70,864.41,15.13
21.768459,899.07,858.20,15.86
21.784086,894.30,846.85,13.05
21.799714,887.64,839.21,15.19
21.815341,890.19,835.23,11.69
21.830968,881.91,829.96,16.04
21.846595,875.54,835.04,10.29
21.862222,877.09,827.37,16.44
21.877849,875.41,825.22,12.63
21.893476,875.90,818.50,15.53
21.909103,864.38,815.74,13.39
21.924730,867.21,813.42,15.35
21.940357,864.51,809.32,16.09
21.955984,857.24,800.91,15.76
21.971611,856.80,800.82,12.42
21.987238,852.83,794.73,16.75
22.002865,844.81,790.94,12.72
22.018492,843.82,783.24,15.70
22.034119,838.17,782.87,16.09
22.049746,844.09,782.51,14.29
22.065373,838.09,780.52,15.26
22.081000,841.97,786.40,14.30
22.096627,850.64,795.14,14.16
22.112254,862.41,811.65,14.54
22.127881,872.76,819.07,14.63
22.143508,875.14,836.07,15.34
22.159135,889.70,836.19,16.85
22.174762,899.66,859.09,12.22
22.190389,915.26,875.28,15.44
22.206016,921.53,884.09,12.31
22.221643,932.51,894.03,14.76
22.237270,939.50,904.37,15.75
22.252898,946.53,909.60,14.80
22.268525,946.96,912.49,17.89
22.284152,941.67,914.24,13.73
22.299779,947.70,915.30,17.56
22.315406,938.49,907.37,14.03
22.331033,935.93,902.05,13.40
22.346660,928.81,890.79,14.30
22.362287,919.29,883.75,18.29
22.377914,914.03,874.86,14.28
22.393541,914.24,863.24,15.17
22.409168,902.48,857.53,18.06
22.424795,898.06,850.74,17.86
22.440422,887.41,839.16,15.02
22.456049,883.13,837.89,15.13
22.471676,882.74,835.16,13.60
22.487303,879.13,829.21,14.91
22.502930,875.97,829.14,11.32
22.518557,870.35,824.16,16.75
22.534184,870.24,822.66,15.78
22.549811,868.91,818.73,15.00
22.565438,862.11,811.81,15.12
22.581065,864.96,803.48,14.75
22.596692,853.01,804.60,15.29
22.612319,855.70,798.69,13.66
22.627946,847.96,787.13,14.88
22.643573,842.89,785.71,16.60
22.659200,844.34,782.92,15.91
22.674827,838.40,787.32,15.63
22.690454,844.74,783.78,15.70
22.706082,845.92,790.20,17.15
22.721709,849.92,791.65,14.98
22.737336,850.74,802.40,13.52
22.752963,860.95,804.61,13.69
22.768590,869.94,819.67,11.47
22.784217,879.69,836.79,12.97
22.799844,895.45,846.56,13.07
22.815471,904.37,864.02,14.02
22.831098,918.71,877.43,14.63
22.846725,919.72,885.48,13.64
22.862352,939.38,903.01,14.39
22.877979,947.04,909.47,12.17
22.893606,946.02,910.16,17.45
22.909233,955.02,919.60,14.48
22.924860,946.16,915.49,12.00
22.940487,947.45,911.60,12.26
22.956114,941.02,905.81,17.48
22.971741,935.60,899.73,15.48
22.987368,924.45,891.24,17.28
23.002995,916.79,880.29,19.34
23.018622,911.00,871.27,16.57
23.034249,907.77,863.88,13.87
23.049876,899.38,850.54,14.46
23.065503,887.24,843.06,15.37
23.081130,890.27,838.41,15.58
23.096757,880.84,840.21,19.39
23.112384,884.80,829.06,13.64
23.128011,875.44,831.13,18.80
23.143638,873.57,829.75,14.64
23.159266,872.19,819.18,16.66
23.174893,866.11,818.31,15.36
23.190520,863.92,813.29,15.42
23.206147,865.75,807.23,19.77
23.221774,857.76,807.97,16.24
23.237401,856.69,796.87,17.58
23.253028,848.02,794.95,11.61
23.268655,844.28,786.94,14.16
23.284282,845.00,787.05,13.39
23.299909,843.02,788.42,15.68
23.315536,845.62,777.21,15.15
23.331163,845.37,780.71,13.25
23.346790,842.56,785.40,15.60
23.362417,855.36,792.90,14.65
23.378044,853.64,802.70,14.63
23.393671,863.27,810.25,18.22
23.409298,877.94,823.94,18.74
23.424925,882.45,838.91,12.87
23.440552,895.45,854.05,13.45
23.456179,909.72,866.71,14.34
23.471806,921.53,884.22,18.44
23.487433,928.82,891.80,16.08
23.503060,941.70,901.95,14.27
23.518687,942.77,911.50,15.14
23.534314,947.63,911.36,13.01
23.549941,943.79,914.05,17.51
23.565568,944.01,917.10,13.84
23.581195,939.71,916.07,15.01
23.596823,935.38,908.24,13.80
23.612450,930.64,904.88,13.93
23.628077,925.90,884.35,15.19
23.643704,917.51,877.26,13.24
23.659331,913.78,874.01,15.65
23.674958,911.78,861.87,15.85
23.690585,894.00,856.70,14.24
23.706212,895.16,849.41,13.18
23.721839,891.19,840.47,15.65
23.737466,881.82,825.62,15.37
23.753093,882.44,837.07,14.71
23.768720,876.01,828.64,10.24
23.784347,882.33,823.29,13.47
23.799974,871.85,821.13,13.98
23.815601,868.56,816.09,16.78
23.831228,864.23,811.40,18.99
23.846855,864.08,811.04,15.62
23.862482,857.79,804.24,14.10
23.878109,857.10,798.84,16.87
23.893736,850.11,793.96,15.85
23.909363,846.23,786.76,13.12
23.924990,837.82,783.83,13.85
23.940617,842.39,781.91,13.03
23.956244,839.35,780.89,11.32
23.971871,844.64,783.14,13.58
23.987498,847.06,787.86,18.48
24.003125,850.43,798.71,14.07
24.018752,861.73,809.38,15.42
24.034379,871.82,814.20,15.04
24.050007,885.04,822.56,14.83
24.065634,892.55,842.67,16.14
24.081261,902.75,856.29,13.19
24.096888,915.33,871.99,13.92
24.112515,926.68,886.35,13.45
24.128142,935.75,898.30,18.20
24.143769,940.38,903.34,12.87
24.159396,946.33,918.74,16.66
24.175023,941.72,917.57,11.82
24.190650,946.67,912.09,14.22
24.206277,945.52,915.64,11.87
24.221904,946.00,905.14,16.24
24.237531,937.47,901.98,14.10
24.253158,937.38,893.55,14.37
24.268785,917.88,884.21,18.84
24.284412,920.09,877.63,16.97
24.300039,904.08,869.87,16.21
24.315666,900.94,859.64,11.40
24.331293,893.44,847.66,16.11
24.346920,887.12,843.92,15.43
24.362547,885.43,840.42,15.62
24.378174,884.93,829.87,15.43
24.393801,879.68,829.77,13.92
24.409428,878.50,827.44,16.33
24.425055,872.13,821.96,14.81
24.440682,874.37,822.59,16.29
24.456309,868.97,812.29,13.65
24.471936,859.59,812.06,17.16
24.487563,859.55,806.47,12.37
24.503191,858.28,804.11,13.33
24.518818,855.37,794.06,13.04
24.534445,852.90,791.62,15.21
24.550072,842.03,785.01,16.98
24.565699,839.58,785.56,16.23
24.581326,838.58,783.57,13.41
24.596953,846.17,784.75,10.27
24.612580,840.20,794.53,17.73
24.628207,850.34,791.00,14.66
24.643834,854.28,797.31,17.21
24.659461,859.78,812.89,13.72
24.675088,878.60,828.94,16.97
24.690715,878.57,839.63,14.02
24.706342,891.79,852.50,14.94
24.721969,905.47,866.04,17.18
24.737596,925.65,875.42,13.13
24.753223,928.68,892.10,13.69
24.768850,939.20,907.38,17.54
24.784477,937.75,912.98,14.32
24.800104,950.21,913.98,15.87
24.815731,950.45,916.96,16.08
24.831358,950.20,914.74,10.49
24.846985,948.58,912.37,13.27
24.862612,947.25,902.05,13.78
24.878239,938.03,899.20,14.80
24.893866,932.18,889.37,15.04
24.909493,922.70,881.90,14.69
24.925120,913.23,878.18,19.98
24.940747,908.29,866.41,18.20
24.956375,901.79,854.97,15.94
24.972002,900.08,850.72,14.94
24.987629,891.19,843.15,16.04
25.003256,885.44,837.50,16.80
25.018883,881.34,833.80,14.09
25.034510,877.14,832.55,14.32
25.050137,872.69,827.90,15.05
25.065764,873.06,825.95,13.81
25.081391,873.70,824.33,17.03
25.097018,868.50,818.55,12.52
25.112645,865.60,812.05,15.40
25.128272,860.02,807.41,14.12
25.143899,859.06,802.47,15.88
25.159526,852.15,797.68,15.19
25.175153,846.04,787.74,17.41
25.190780,847.97,785.18,15.45
25.206407,844.81,786.15,16.09
25.222034,840.41,784.98,14.14
25.237661,845.50,787.08,18.44
25.253288,846.67,791.52,15.89
25.268915,851.23,795.74,14.96
25.284542,863.28,806.47,16.22
25.300169,868.21,815.07,18.91
25.315796,876.79,829.99,17.34
25.331423,895.31,846.47,15.43
25.347050,903.51,850.35,16.85
25.362677,915.01,872.29,12.78
25.378304,927.75,883.60,12.87
25.393932,930.45,897.21,15.97
25.409559,942.12,902.44,19.19
25.425186,946.33,909.29,14.61
25.440813,949.76,918.98,11.87
25.456440,952.98,918.62,14.98
25.472067,946.04,913.63,15.69
25.487694,950.81,912.44,16.64
25.503321,939.35,907.63,14.12
25.518948,931.80,901.90,13.39
25.534575,929.59,885.65,12.33
25.550202,917.75,878.16,14.73
25.565829,910.87,863.54,16.15
25.581456,903.24,862.79,14.49
25.597083,899.24,849.52,18.57
25.612710,889.47,851.71,17.18
25.628337,888.39,835.67,14.21
25.643964,880.03,832.63,16.70
25.659591,885.27,837.38,14.02
25.675218,881.08,827.95,16.27
25.690845,882.46,824.83,14.52
25.706472,877.60,824.68,12.42
25.722099,869.43,819.15,16.68
25.737726,864.29,809.02,11.30
25.753353,867.21,812.06,18.54
25.768980,859.13,801.99,12.68
25.784607,854.59,797.94,17.16
25.800234,855.32,793.02,14.49
25.815861,850.63,785.56,13.87
25.831488,842.69,791.00,14.16
25.847116,841.35,782.61,15.25
25.862743,844.17,781.11,17.13
25.878370,849.49,785.61,16.07
25.893997,850.93,793.34,14.19
25.909624,860.38,802.15,18.02
25.925251,864.06,809.49,12.16
25.940878,875.09,825.70,13.04
25.956505,883.59,835.28,12.97
25.972132,897.26,849.58,13.91
25.987759,908.52,865.23,12.80
26.003386,916.62,875.86,15.06
26.019013,930.08,889.34,15.37
26.034640,939.72,903.37,16.70
26.050267,940.24,909.56,13.67
26.065894,948.20,919.98,16.93
26.081521,951.50,915.74,13.44
26.097148,953.47,917.50,16.71
26.112775,951.55,913.11,15.34
26.128402,943.36,916.11,14.82
26.144029,945.61,901.71,17.45
26.159656,927.73,895.31,11.70
26.175283,927.06,885.07,16.79
26.190910,916.23,874.59,14.92
26.206537,910.98,863.52,18.17
26.222164,902.62,859.32,15.13
26.237791,900.85,854.92,13.06
26.253418,894.07,843.68,14.75
26.269045,886.88,839.55,13.53
26.284672,887.04,835.60,15.49
26.300300,884.37,832.38,13.42
26.315927,876.72,833.36,17.45
26.331554,880.68,822.32,15.47
26.347181,870.36,816.86,13.47
26.362808,871.89,816.28,11.95
26.378435,870.83,814.09,16.34
26.394062,863.81,811.83,16.72
26.409689,863.13,800.57,15.96
26.425316,856.45,795.63,14.14
26.440943,848.52,798.26,13.01
26.456570,849.56,787.19,17.25
26.472197,849.67,784.51,12.70
26.487824,846.28,783.02,12.33
26.503451,844.59,788.86,17.26
26.519078,841.57,785.42,13.28
26.534705,850.26,802.88,18.46
26.550332,858.95,810.13,12.98
26.565959,869.90,817.82,15.94
26.581586,883.29,824.32,16.49
26.597213,884.94,839.53,14.75
26.612840,900.43,861.57,12.37
26.628467,914.82,874.72,12.20
26.644094,924.97,883.22,17.05
26.659721,935.97,895.41,15.17
26.675348,942.91,906.77,12.64
26.690975,949.76,911.51,17.89
26.706602,948.98,923.64,19.52
26.722229,950.87,920.18,15.55
26.737856,947.60,916.53,16.29
26.753484,946.09,914.33,13.54
26.769111,939.87,906.23,14.49
26.784738,933.18,897.51,14.51
26.800365,923.51,890.94,15.16
26.815992,924.14,879.07,16.51
26.831619,916.19,868.93,17.00
26.847246,907.44,862.96,14.51
26.862873,905.60,857.76,10.80
26.878500,895.57,850.65,14.24
26.894127,886.53,840.75,12.37
26.909754,886.98,841.25,12.67
26.925381,883.65,839.00,14.41
26.941008,876.89,830.46,17.65
26.956635,874.32,821.03,13.39
26.972262,876.95,821.79,14.80
26.987889,873.96,820.21,14.06
27.003516,870.53,815.77,14.37
27.019143,872.63,813.62,19.88
27.034770,860.12,804.94,15.46
27.050397,862.02,803.74,15.46
27.066024,851.66,799.06,12.55
27.081651,849.12,789.02,15.06
27.097278,848.78,792.16,13.44
27.112905,847.01,787.02,15.61
27.128532,842.94,779.23,13.67
27.144159,850.78,791.85,17.42
27.159786,848.23,794.96,15.59
27.175413,860.88,803.66,14.34
27.191041,859.20,809.24,15.42
27.206668,871.73,823.52,15.19
27.222295,884.77,834.60,15.84
27.237922,896.64,848.41,13.90
27.253549,908.49,861.71,15.03
27.269176,923.41,880.74,18.03
27.284803,929.77,890.80,17.38
27.300430,941.14,906.41,19.45
27.316057,951.25,910.15,17.56
27.331684,953.03,917.82,14.48
27.347311,953.53,923.89,15.23
27.362938,954.48,920.65,15.77
27.378565,950.67,920.58,15.71
27.394192,949.22,911.00,13.21
27.409819,941.26,899.67,15.86
27.425446,928.33,903.08,14.45
27.441073,924.83,880.97,16.70
27.456700,914.39,876.43,14.68
27.472327,912.26,872.30,14.83
27.487954,909.30,862.86,13.97
27.503581,896.80,852.73,13.79
27.519208,889.89,851.21,17.34
27.534835,892.19,839.27,16.17
27.550462,885.82,842.96,16.29
27.566089,882.13,831.71,14.18
27.581716,873.58,826.96,17.72
27.597343,869.67,828.59,12.21
27.612970,869.16,822.59,14.69
27.628597,873.00,819.55,12.25
27.644225,868.01,819.92,15.22
27.659852,864.89,809.68,14.61
27.675479,860.92,797.61,15.98
27.691106,860.12,801.44,16.37
27.706733,850.42,793.09,16.10
27.722360,849.09,796.52,16.52
27.737987,845.59,788.50,14.75
27.753614,847.19,790.22,14.13
27.769241,851.66,789.01,14.90
27.784868,849.62,794.99,18.05
27.800495,856.68,799.03,12.95
27.816122,860.19,807.99,14.92
27.831749,866.57,813.58,13.95
27.847376,882.67,828.84,14.98
27.863003,889.96,849.73,12.16
27.878630,904.44,858.88,13.89
27.894257,918.63,869.85,11.99
27.909884,924.43,888.66,15.28
27.925511,937.41,898.01,18.87
27.941138,943.31,909.10,14.35
27.956765,950.04,918.70,15.14
27.972392,954.83,919.05,10.31
27.988019,953.46,918.15,13.87
28.003646,949.15,919.05,13.81
28.019273,950.73,916.35,15.68
28.034900,946.02,912.27,13.53
28.050527,938.78,899.09,13.15
28.066154,931.53,894.48,17.72
28.081781,926.91,874.19,17.55
28.097409,917.10,870.18,12.52
28.113036,908.32,869.28,15.30
28.128663,901.51,859.27,13.80
28.144290,897.99,852.14,15.88
28.159917,895.88,845.24,16.40
28.175544,882.57,837.99,14.92
28.191171,889.00,832.35,13.91
28.206798,880.22,834.74,15.90
28.222425,882.84,835.38,15.98
28.238052,875.19,823.29,11.86
28.253679,872.14,821.25,14.83
28.269306,872.46,821.17,14.94
28.284933,864.99,813.58,13.07
28.300560,867.75,814.47,19.12
28.316187,858.38,805.75,14.18
28.331814,854.81,793.71,15.79
28.347441,850.30,798.49,12.35
28.363068,847.43,790.68,17.47
28.378695,845.93,789.21,12.80
28.394322,847.98,786.93,15.07
28.409949,845.35,794.73,16.54
28.425576,851.84,788.66,15.48
28.441203,861.81,803.44,14.47
28.456830,866.54,811.90,15.34
28.472457,872.20,828.07,16.89
28.488084,884.89,845.48,14.58
28.503711,901.72,851.72,15.34
28.519338,908.46,868.96,14.12
28.534965,918.52,880.74,13.82
28.550593,930.29,895.16,14.16
28.566220,938.11,906.51,14.36
28.581847,951.69,910.45,14.05
28.597474,951.73,918.87,17.11
28.613101,954.79,925.54,12.79
28.628728,960.19,927.00,13.68
28.644355,948.62,920.03,14.22
28.659982,950.37,914.26,15.57
28.675609,945.67,906.54,15.39
28.691236,936.55,900.66,14.99
28.706863,931.61,891.47,16.53
28.722490,921.25,877.07,14.90
28.738117,912.56,868.30,14.50
28.753744,909.29,866.40,13.03
28.769371,902.78,852.08,12.83
28.784998,897.31,858.38,17.13
28.800625,892.81,844.06,15.59
28.816252,884.88,841.19,15.90
28.831879,881.35,832.74,12.54
28.847506,883.81,833.03,13.86
28.863133,882.86,830.35,14.75
28.878760,880.06,831.61,15.27
28.894387,872.96,819.42,14.00
28.910014,870.20,818.72,13.10
28.925641,868.40,816.82,13.04
28.941268,864.44,808.98,15.13
28.956895,861.55,800.92,11.57
28.972522,850.86,791.32,14.67
28.988149,858.89,791.76,13.10
29.003777,846.68,788.01,16.26
29.019404,849.30,786.16,17.28
29.035031,853.21,790.43,11.38
29.050658,853.28,796.98,20.92
29.066285,859.42,802.39,16.90
29.081912,862.50,808.67,15.12
29.097539,872.67,817.62,14.80
29.113166,881.83,833.74,15.38
29.128793,895.76,848.68,14.45
29.144420,904.56,861.30,18.00
29.160047,913.05,875.55,15.25
29.175674,932.74,887.08,15.96
29.191301,935.71,900.68,15.64
29.206928,952.57,911.19,15.10
29.222555,954.85,918.34,17.19
29.238182,957.13,926.29,16.03
29.253809,955.98,924.07,16.86
29.269436,952.00,919.97,14.41
29.285063,952.11,919.36,15.22
29.300690,945.39,914.31,13.03
29.316317,936.22,903.84,13.01
29.331944,938.04,895.63,15.01
29.347571,931.46,888.06,13.41
29.363198,919.07,875.04,17.47
29.378825,910.72,868.68,16.28
29.394452,909.44,859.86,16.94
29.410079,896.17,851.59,11.39
29.425706,892.91,848.57,18.11
29.441334,892.07,842.95,15.68
29.456961,888.92,842.95,12.67
29.472588,886.96,831.18,15.67
29.488215,883.17,829.92,14.49
29.503842,882.68,823.19,15.40
29.519469,876.57,818.29,15.05
29.535096,877.31,825.81,14.41
29.550723,871.78,813.53,15.17
29.566350,865.13,814.54,13.83
29.581977,861.69,805.94,15.51
29.597604,858.72,795.73,15.43
29.613231,857.77,796.47,17.13
29.628858,849.99,794.60,19.30
29.644485,851.39,796.62,17.03
29.660112,855.12,793.74,15.31
29.675739,850.53,794.01,13.19
29.691366,853.62,798.13,20.20
29.706993,858.25,806.63,12.54
29.722620,876.48,819.16,17.82
29.738247,881.26,825.69,18.41
29.753874,898.96,838.01,16.49
29.769501,901.96,855.29,17.70
29.785128,908.35,870.75,11.18
29.800755,921.52,890.70,13.66
29.816382,932.65,899.32,17.50
29.832009,946.34,910.09,13.50
29.847636,949.14,913.22,14.95
29.863263,961.86,920.81,16.11
29.878890,960.47,927.74,15.74
29.894518,953.95,924.16,14.18
29.910145,956.76,920.75,14.55
29.925772,949.09,916.77,15.16
29.941399,945.83,905.09,19.05
29.957026,935.11,893.54,14.70
29.972653,934.70,889.02,15.61
29.988280,923.01,884.43,13.83
30.003907,916.33,875.50,14.87
30.019534,905.98,863.60,14.40
30.035161,902.76,854.86,14.47
30.050788,895.21,855.79,19.21
30.066415,892.72,842.07,16.52
30.082042,890.80,841.06,16.02
30.097669,893.33,835.90,15.71
30.113296,886.32,835.57,12.06
30.128923,879.34,834.40,16.66
30.144550,885.07,830.08,13.33
30.160177,877.95,823.27,15.17
30.175804,872.74,823.97,15.15
30.191431,870.77,807.21,13.70
30.207058,861.71,816.14,17.27
30.222685,859.29,803.93,20.40
30.238312,856.93,794.70,15.17
30.253939,856.07,795.06,13.51
30.269566,851.00,792.51,15.78
30.285193,847.50,792.92,15.49
30.300820,854.71,796.05,15.98
30.316447,858.88,793.74,18.11
30.332074,857.54,805.73,19.61
30.347702,863.19,815.43,14.45
30.363329,879.65,824.16,16.40
30.378956,884.38,832.80,13.55
30.394583,895.28,847.96,14.05
30.410210,911.68,862.72,16.21
30.425837,925.70,881.07,17.50
30.441464,931.02,896.54,17.40
30.457091,938.86,904.60,18.09
30.472718,947.51,918.08,17.85
30.488345,954.53,922.50,16.19
30.503972,958.28,924.09,15.58
30.519599,961.33,928.26,19.43
30.535226,959.16,921.45,18.04
30.550853,951.64,920.21,16.20
30.566480,951.99,911.91,15.54
30.582107,940.68,909.68,13.04
30.597734,934.52,899.32,14.00
30.613361,927.51,885.71,17.03
30.628988,923.78,876.12,15.28
30.644615,912.97,874.17,17.69
30.660242,909.09,863.92,13.25
30.675869,899.96,854.34,17.06
30.691496,891.46,849.99,15.58
30.707123,897.40,844.93,17.55
30.722750,892.42,840.73,11.28
30.738377,890.92,834.26,11.63
30.754004,888.21,835.75,14.03
30.769631,882.80,826.61,13.02
30.785258,871.47,824.24,15.06
30.800886,876.56,826.08,13.74
30.816513,873.41,814.89,13.36
30.832140,869.61,813.76,14.60
30.847767,864.16,803.46,15.71
30.863394,855.95,796.13,13.72
30.879021,854.37,793.22,13.24
30.894648,857.27,797.55,18.88
30.910275,854.61,793.52,12.03
30.925902,852.36,790.96,17.56
30.941529,849.59,797.08,15.86
30.957156,858.62,804.82,13.80
30.972783,865.18,811.58,12.73
30.988410,876.81,821.46,14.40
31.004037,881.57,827.00,13.09
31.019664,891.70,842.71,16.44
31.035291,908.84,857.68,13.42
31.050918,914.78,877.11,16.07
31.066545,926.41,887.06,17.42
31.082172,932.25,898.07,13.90
31.097799,945.74,913.97,14.70
31.113426,958.08,916.83,13.90
31.129053,960.42,925.15,13.50
31.144680,961.24,928.29,15.17
31.160307,957.83,931.03,14.64
31.175934,959.99,921.58,14.08
31.191561,951.08,914.44,14.09
31.207188,947.43,911.03,15.79
31.222815,935.80,903.56,16.55
31.238443,935.16,889.63,13.18
31.254070,923.39,880.49,16.25
31.269697,915.97,875.63,16.44
31.285324,913.81,871.33,14.75
31.300951,904.45,857.54,11.66
31.316578,902.78,856.62,12.28
31.332205,897.21,840.99,12.25
31.347832,890.17,845.84,14.38
31.363459,893.75,842.17,14.59
31.379086,890.81,839.25,15.88
31.394713,884.24,832.36,13.62
31.410340,885.71,832.46,15.15
31.425967,881.11,824.74,15.41
31.441594,874.28,821.30,14.67
31.457221,874.95,818.08,14.41
31.472848,871.56,812.15,14.61
31.488475,870.37,803.63,10.81
31.504102,855.91,799.53,16.45
31.519729,854.80,793.43,15.00
31.535356,848.91,799.23,13.67
31.550983,856.30,788.65,13.46
31.566610,848.43,792.22,17.10
31.582237,861.77,798.74,13.71
31.597864,865.66,809.50,16.01
31.613491,871.09,812.72,15.91
31.629118,885.03,824.17,12.49
31.644745,883.44,841.28,14.80
31.660372,897.64,856.05,18.28
31.675999,916.94,870.20,16.22
31.691627,926.91,879.73,14.42
31.707254,935.06,894.27,17.22
31.722881,949.15,902.55,13.14
31.738508,952.56,914.81,16.94
31.754135,960.70,917.84,13.55
31.769762,965.49,929.88,18.39
31.785389,958.27,929.96,12.87
31.801016,954.55,925.12,13.54
31.816643,956.30,919.86,17.63
31.832270,951.74,913.76,14.67
31.847897,941.33,906.33,15.46
31.863524,940.88,902.43,17.87
31.879151,927.16,884.84,12.73
31.894778,926.48,878.83,17.95
31.910405,913.20,866.42,16.34
31.926032,909.48,860.02,16.47
31.941659,900.29,853.70,15.44
31.957286,897.13,847.95,18.58
31.972913,897.75,843.99,16.04
31.988540,890.64,840.27,11.22
32.004167,890.06,833.54,16.29
32.019794,884.73,832.69,13.65
32.035421,882.82,828.04,16.49
32.051048,885.76,825.97,16.25
32.066675,881.35,823.93,16.63
32.082302,876.22,818.78,15.58
32.097929,868.33,812.77,13.23
32.113556,863.33,806.49,14.51
32.129183,865.17,802.68,12.57
32.144811,859.47,800.30,17.28
32.160438,854.28,800.24,12.12
32.176065,861.36,793.38,13.06
32.191692,855.69,797.67,15.72
32.207319,854.29,798.27,17.06
32.222946,866.23,801.02,15.11
32.238573,874.56,811.23,13.93
32.254200,877.23,822.32,15.76
32.269827,889.25,837.12,15.28
32.285454,901.43,851.34,14.65
32.301081,913.60,866.21,16.35
32.316708,925.51,879.28,16.28
32.332335,935.22,896.00,14.91
32.347962,937.73,906.70,15.42
32.363589,952.35,917.12,13.98
32.379216,956.94,919.91,11.76
32.394843,957.66,927.13,16.09
32.410470,957.51,930.43,16.92
32.426097,957.55,927.88,16.31
32.441724,956.67,923.97,13.95
32.457351,956.84,917.07,14.06
32.472978,946.01,901.78,16.65
32.488605,944.42,902.59,18.11
32.504232,933.30,885.54,13.05
32.519859,928.29,882.79,12.71
32.535486,923.09,876.61,14.85
32.551113,909.54,862.55,15.53
32.566740,906.13,858.89,17.27
32.582367,901.11,846.67,16.15
32.597995,896.09,847.21,13.97
32.613622,893.02,843.54,17.97
32.629249,898.71,844.98,17.37
32.644876,887.08,834.45,18.44
32.660503,889.79,828.01,16.46
32.676130,886.59,834.21,14.52
32.691757,884.92,824.69,11.90
32.707384,870.01,820.55,16.28
32.723011,873.29,816.99,13.87
32.738638,871.35,810.19,15.43
32.754265,859.53,809.83,16.24
32.769892,860.06,799.20,16.07
32.785519,857.41,797.27,13.96
32.801146,858.86,792.19,13.98
32.816773,859.95,799.46,13.85
32.832400,860.32,798.81,13.73
32.848027,862.55,803.48,13.11
32.863654,874.45,808.03,15.33
32.879281,882.87,821.44,12.25
32.894908,886.03,832.66,12.94
32.910535,901.78,846.54,10.90
32.926162,912.15,861.38,13.16
32.941789,921.32,877.98,16.28
32.957416,935.24,892.86,16.65
32.973043,942.45,902.26,11.65
32.988670,951.11,912.33,14.09
33.004297,963.60,926.27,14.77
33.019924,960.43,927.70,10.60
33.035552,959.06,929.92,15.10
33.051179,966.07,928.68,13.55
33.066806,960.97,923.42,14.97
33.082433,953.78,920.96,11.42
33.098060,953.70,911.73,17.08
33.113687,940.23,899.96,14.50
33.129314,932.15,892.03,18.18
33.144941,934.20,881.32,16.20
33.160568,912.23,878.82,17.42
33.176195,915.57,868.67,15.92
33.191822,908.41,860.80,13.79
33.207449,904.65,844.69,16.19
33.223076,897.61,847.35,14.29
33.238703,895.46,843.94,12.35
33.254330,893.40,845.55,14.07
33.269957,885.08,836.64,13.66
33.285584,887.25,834.36,12.67
33.301211,884.82,835.41,14.60
33.316838,880.86,821.74,14.03
33.332465,881.25,828.71,16.56
33.348092,870.17,816.26,16.38
33.363719,872.36,815.39,17.73
33.379346,864.75,808.03,18.32
33.394973,869.80,803.98,17.41
33.410600,858.51,795.85,17.02
33.426227,862.11,794.49,14.04
33.441854,853.91,792.98,11.36
33.457481,859.30,799.65,14.10
33.473108,859.70,802.15,14.89
33.488736,866.56,811.52,16.90
33.504363,875.49,816.08,12.87
33.519990,887.78,831.75,12.55
33.535617,896.20,842.15,18.30
33.551244,907.77,855.28,12.93
33.566871,920.99,876.71,13.98
33.582498,934.76,884.93,15.91
33.598125,945.67,896.87,16.30
33.613752,953.89,905.28,15.62
33.629379,958.30,914.94,14.65
33.645006,960.31,925.09,17.13
33.660633,961.71,927.49,16.85
33.676260,965.69,929.00,14.99
33.691887,966.47,928.25,16.43
33.707514,958.97,918.30,15.12
33.723141,952.33,916.74,12.80
33.738768,947.05,912.09,14.60
33.754395,932.96,901.83,13.84
33.770022,930.83,889.42,17.12
33.785649,927.26,883.75,18.81
33.801276,915.78,868.01,11.44
33.816903,912.33,865.40,15.02
33.832530,903.30,854.63,15.98
33.848157,906.60,852.92,13.02
33.863784,900.72,851.09,15.34
33.879411,899.72,844.06,13.61
33.895038,893.47,841.58,12.40
33.910665,895.12,835.16,13.29
33.926292,884.91,828.85,13.70
33.941920,885.95,825.89,13.75
33.957547,884.09,825.51,12.18
33.973174,877.35,819.91,12.53
33.988801,871.26,812.49,15.43
34.004428,870.28,815.07,16.30
34.020055,862.86,801.49,14.17
34.035682,865.94,799.73,17.09
34.051309,858.85,797.17,15.41
34.066936,853.95,797.87,14.83
34.082563,858.92,796.02,12.65
34.098190,864.72,802.49,16.26
34.113817,865.27,807.10,14.19
34.129444,870.42,817.25,15.71
34.145071,879.18,820.64,15.24
34.160698,888.78,837.40,13.74
34.176325,906.00,847.47,16.48
34.191952,918.39,865.86,16.97
34.207579,923.65,884.76,13.55
34.223206,940.24,894.87,16.43
34.238833,951.88,902.15,15.35
34.254460,956.32,921.45,14.18
34.270087,960.03,923.53,16.19
34.285714,965.89,930.93,16.84
34.301341,966.31,933.16,15.46
34.316968,968.54,924.87,16.19
34.332595,968.52,926.69,17.09
34.348222,958.43,916.12,13.93
34.363849,953.61,915.12,18.12
34.379476,939.19,904.54,16.59
34.395104,936.63,891.95,16.56
34.410731,931.13,880.45,13.12
34.426358,920.97,872.51,15.83
34.441985,916.13,864.99,16.91
34.457612,911.49,855.21,13.48
34.473239,903.17,848.27,16.53
34.488866,902.14,848.03,13.24
34.504493,902.69,848.26,15.62
34.520120,893.62,831.90,16.06
34.535747,896.40,836.82,15.58
34.551374,890.64,834.76,13.74
34.567001,887.04,831.12,17.19
34.582628,882.39,828.45,15.13
34.598255,884.08,822.91,17.53
34.613882,877.29,813.15,13.31
34.629509,867.02,810.93,16.86
34.645136,867.41,805.32,17.68
34.660763,860.44,803.07,18.79
34.676390,863.62,796.92,16.73
34.692017,858.33,798.93,18.17
34.707644,858.39,801.17,14.03
34.723271,863.25,799.06,16.94
34.738898,866.19,807.54,16.36
34.754525,868.78,807.70,14.66
34.770152,879.46,824.52,10.64
34.785779,888.62,835.98,13.82
34.801406,903.38,845.69,11.58
34.817033,908.77,858.81,10.78
34.832661,920.77,874.78,16.02
34.848288,932.73,881.94,15.97
34.863915,943.75,903.51,14.85
34.879542,952.45,916.79,13.77
34.895169,954.38,924.17,15.29
34.910796,966.98,924.74,15.73
34.926423,967.51,932.84,17.71
34.942050,967.79,927.38,16.66
34.957677,959.12,925.24,15.98
34.973304,962.63,921.24,15.56
34.988931,951.94,914.83,10.59
35.004558,943.92,907.29,12.24
35.020185,939.85,898.43,12.33
35.035812,935.41,889.00,16.07
35.051439,924.86,877.69,14.55
35.067066,919.52,869.11,16.34
35.082693,914.90,857.11,13.53
35.098320,903.93,856.79,13.14
35.113947,905.30,853.95,13.25
35.129574,899.22,846.56,14.23
35.145201,899.81,846.24,15.79
35.160828,900.22,840.43,15.10
35.176455,893.35,840.39,14.82
35.192082,887.26,829.92,16.35
35.207709,883.88,829.61,12.20
35.223336,879.37,824.05,13.97
35.238963,876.16,818.60,15.83
35.254590,874.12,813.95,15.77
35.270217,867.94,807.93,12.28
35.285845,861.95,802.41,11.23
35.301472,858.57,802.50,14.02
35.317099,860.88,799.84,18.30
35.332726,862.28,801.42,14.89
35.348353,863.19,798.20,14.88
35.363980,867.19,799.62,13.40
35.379607,870.80,810.58,17.27
35.395234,879.15,816.67,15.14
35.410861,885.45,827.71,16.87
35.426488,895.35,843.68,15.53
35.442115,903.05,856.19,15.22
35.457742,920.35,871.09,17.56
35.473369,927.45,884.05,11.24
35.488996,938.24,895.71,14.21
35.504623,950.92,912.80,14.04
35.520250,955.42,920.28,18.79
35.535877,961.48,925.27,12.06
35.551504,965.73,927.12,11.77
35.567131,965.16,937.01,17.45
35.582758,970.86,932.25,12.71
35.598385,963.30,929.09,12.91
35.614012,959.76,920.90,11.43
35.629639,953.70,907.77,14.41
35.645266,943.49,900.64,13.25
35.660893,937.92,890.39,13.55
35.676520,926.83,888.43,16.24
35.692147,921.49,874.55,17.49
35.707774,916.83,860.97,15.94
35.723401,911.23,856.25,15.46
35.739029,909.85,852.70,16.52
35.754656,900.51,847.88,12.49
35.770283,902.08,843.36,16.66
35.785910,896.94,837.95,11.96
35.801537,893.48,839.37,15.09
35.817164,885.71,836.65,18.48
35.832791,887.91,830.79,13.73
35.848418,887.05,826.39,16.48
35.864045,877.00,819.59,16.33
35.879672,881.19,812.54,14.00
35.895299,876.22,810.33,17.23
35.910926,868.32,803.10,16.00
35.926553,865.84,798.85,11.32
35.942180,862.13,795.29,12.14
35.957807,858.78,794.93,15.61
35.973434,860.42,800.76,17.20
35.989061,862.15,798.43,17.95
36.004688,874.28,804.93,14.26
36.020315,874.75,813.98,14.20
36.035942,883.00,821.87,16.35
36.051569,890.43,831.84,17.97
36.067196,896.63,846.32,16.50
36.082823,915.57,862.23,16.90
36.098450,930.12,880.96,14.62
36.114077,939.68,891.24,16.80
36.129704,941.80,903.30,13.64
36.145331,962.28,914.89,15.32
36.160958,961.88,926.24,11.84
36.176585,969.40,927.25,14.69
36.192213,964.55,933.02,12.48
36.207840,976.44,934.36,19.17
36.223467,961.35,926.62,11.95
36.239094,956.04,919.34,12.73
36.254721,951.26,916.23,12.64
36.270348,948.23,898.99,20.14
36.285975,936.49,891.84,12.68
36.301602,928.03,875.28,14.84
36.317229,925.20,879.56,15.52
36.332856,914.81,873.71,13.93
36.348483,918.92,859.39,14.29
36.364110,904.18,848.14,13.52
36.379737,899.73,856.38,16.77
36.395364,901.30,845.33,16.85
36.410991,893.08,843.22,14.57
36.426618,896.81,842.49,14.25
36.442245,888.24,834.14,18.67
36.457872,886.00,830.04,15.48
36.473499,886.35,828.04,14.59
36.489126,880.81,816.92,16.93
36.504753,879.21,821.65,13.02
36.520380,873.37,813.92,16.45
36.536007,870.21,809.49,13.30
36.551634,866.08,800.13,17.78
36.567261,862.13,797.14,12.05
36.582888,853.31,797.16,11.91
36.598515,861.42,796.50,17.32
36.614142,862.20,800.09,14.99
36.629770,866.22,805.90,14.99
36.645397,867.63,807.30,17.18
36.661024,881.98,822.57,14.70
36.676651,886.57,827.53,14.82
36.692278,900.60,846.04,16.65
36.707905,910.92,865.33,15.95
36.723532,926.15,873.24,20.20
36.739159,929.58,883.37,14.33
36.754786,949.97,903.90,15.74
36.770413,951.96,912.74,15.52
36.786040,964.25,926.02,14.42
36.801667,964.79,924.35,19.20
36.817294,973.31,926.85,14.52
36.832921,966.87,922.49,13.88
36.848548,965.74,927.99,15.83
36.864175,965.46,922.86,15.66
36.879802,957.53,915.24,14.90
36.895429,947.46,901.20,17.53
36.911056,945.82,901.01,15.27
36.926683,930.99,883.45,17.20
36.942310,921.42,878.25,12.94
36.957937,920.01,869.21,15.81
36.973564,919.42,867.95,10.52
36.989191,904.13,856.20,19.34
37.004818,907.03,850.48,15.68
37.020445,904.79,842.28,14.70
37.036072,897.17,846.38,15.63
37.051699,893.75,840.32,10.67
37.067326,893.10,832.35,16.20
37.082954,889.59,832.92,13.63
37.098581,889.72,828.54,13.78
37.114208,888.08,824.72,17.41
37.129835,875.40,817.87,12.85
37.145462,871.99,816.09,14.64
37.161089,863.97,808.55,14.47
37.176716,866.91,806.54,11.48
37.192343,863.46,803.08,18.38
37.207970,862.78,794.03,17.01
37.223597,856.06,796.38,12.64
37.239224,858.34,794.26,14.06
37.254851,865.66,802.16,19.07
37.270478,871.59,810.12,15.93
37.286105,878.75,816.93,13.79
37.301732,890.00,827.45,18.38
37.317359,894.65,842.33,14.58
37.332986,904.33,859.47,11.28
37.348613,921.89,871.50,17.44
37.364240,933.07,885.84,15.22
37.379867,941.78,894.18,15.87
37.395494,951.37,909.41,16.15
37.411121,960.03,923.01,14.89
37.426748,970.14,927.67,13.54
37.442375,968.37,930.96,15.65
37.458002,972.51,932.32,15.88
37.473629,965.50,931.86,16.23
37.489256,960.70,925.27,12.87
37.504883,960.48,920.27,13.66
37.520510,946.76,908.07,15.71
37.536138,941.15,899.38,17.02
37.551765,935.46,883.37,19.03
37.567392,924.47,875.20,14.85
37.583019,925.36,873.62,15.12
37.598646,916.26,863.53,14.20
37.614273,912.72,857.29,15.90
37.629900,904.23,848.34,17.46
37.645527,901.02,848.69,13.19
37.661154,893.72,844.13,14.09
37.676781,893.64,839.99,12.67
37.692408,896.99,838.14,18.59
37.708035,889.82,830.43,14.24
37.723662,893.86,830.78,15.27
37.739289,882.21,820.37,12.41
37.754916,880.48,820.88,15.02
37.770543,877.11,814.30,12.59
37.786170,871.08,810.88,13.35
37.801797,871.21,803.52,16.30
37.817424,864.10,803.05,17.38
37.833051,865.09,795.19,17.90
37.848678,859.00,794.51,12.42
37.864305,858.79,795.85,14.26
37.879932,867.65,798.39,14.64
37.895559,864.32,809.11,15.73
37.911186,876.49,818.66,15.75
37.926813,887.73,825.95,13.36
37.942440,892.71,841.44,16.10
37.958067,906.60,855.19,12.91
37.973694,917.88,872.07,13.04
37.989322,928.70,881.97,10.64
38.004949,941.55,893.47,17.52
38.020576,949.81,909.53,12.46
38.036203,962.02,913.45,16.93
38.051830,965.02,921.71,10.03
38.067457,968.34,924.92,14.33
38.083084,965.39,929.95,13.95
38.098711,966.70,927.05,11.82
38.114338,966.90,923.45,15.62
38.129965,960.16,920.50,13.77
38.145592,953.77,906.29,17.74
38.161219,948.67,906.52,14.32
38.176846,936.99,888.78,16.47
38.192473,932.53,883.64,15.52
38.208100,922.19,877.98,16.32
38.223727,918.66,870.52,14.46
38.239354,912.99,860.26,13.43
38.254981,904.31,855.92,13.31
38.270608,903.53,846.83,12.15
38.286235,899.36,842.28,16.36
38.301862,894.29,841.88,12.27
38.317489,898.43,835.42,11.51
38.333116,893.92,834.90,15.79
38.348743,886.38,830.33,13.88
38.364370,883.81,827.51,12.11
38.379997,881.47,825.53,17.33
38.395624,872.94,815.35,17.96
38.411251,873.60,813.55,11.27
38.426878,869.29,807.51,16.56
38.442506,866.65,806.74,16.56
38.458133,863.08,798.69,12.34
38.473760,860.51,795.20,16.29
38.489387,863.07,798.92,16.21
38.505014,859.15,798.74,10.63
38.520641,870.90,801.72,15.40
38.536268,875.66,809.50,18.59
38.551895,880.48,823.51,17.82
38.567522,889.41,833.81,13.30
38.583149,900.96,839.61,15.71
38.598776,916.01,862.57,13.76
38.614403,924.02,875.08,17.31
38.630030,940.04,887.67,16.01
38.645657,949.58,900.93,18.14
38.661284,955.40,914.98,15.99
38.676911,962.05,921.58,17.33
38.692538,962.90,926.68,13.80
38.708165,968.57,931.83,12.22
38.723792,976.70,923.81,14.67
38.739419,962.60,930.38,18.02
38.755046,960.99,921.75,15.36
38.770673,955.63,915.64,12.57
38.786300,948.95,911.79,14.21
38.801927,944.38,897.05,11.67
38.817554,933.99,880.18,17.21
38.833181,925.84,876.76,11.42
38.848808,916.40,865.13,14.77
38.864435,911.38,865.19,13.11
38.880063,903.03,854.23,16.40
38.895690,899.35,855.36,13.01
38.911317,900.94,843.25,19.26
38.926944,897.74,837.36,14.86
38.942571,897.14,843.71,16.29
38.958198,893.10,831.09,16.15
38.973825,894.66,829.49,13.55
38.989452,884.20,829.06,17.31
39.005079,884.17,824.60,17.53
39.020706,878.68,816.99,17.26
39.036333,873.24,817.65,12.37
39.051960,873.50,805.36,13.92
39.067587,868.03,802.15,13.18
39.083214,860.55,796.52,14.39
39.098841,861.99,800.92,18.52
39.114468,864.20,795.14,14.25
39.130095,862.27,798.17,15.74
39.145722,859.25,796.05,15.37
39.161349,870.61,808.68,16.94
39.176976,876.00,816.57,12.23
39.192603,883.68,824.34,14.27
39.208230,892.42,835.35,15.51
39.223857,904.33,847.70,15.75
39.239484,919.65,866.57,12.67
39.255111,930.89,875.27,14.22
39.270738,944.53,895.05,17.53
39.286365,948.57,901.02,16.79
39.301992,959.48,906.99,13.16
39.317619,963.81,925.09,19.52
39.333247,966.59,928.72,15.14
39.348874,963.40,932.15,14.69
39.364501,958.38,931.20,17.27
39.380128,963.30,924.00,15.90
39.395755,956.24,922.42,13.41
39.411382,950.85,910.77,16.35
39.427009,943.41,896.03,18.29
39.442636,943.17,891.76,12.37
39.458263,929.54,885.13,15.66
39.473890,925.61,871.78,18.72
39.489517,919.48,862.39,16.07
39.505144,906.66,859.46,13.28
39.520771,902.67,851.88,14.24
39.536398,900.66,849.55,15.62
39.552025,899.23,844.36,13.58
39.567652,893.63,845.55,12.71
39.583279,888.09,835.25,14.36
39.598906,892.31,827.46,17.42
39.614533,884.36,827.04,15.79
39.630160,884.51,827.25,12.59
39.645787,882.54,819.52,16.78
39.661414,872.18,819.32,13.55
39.677041,870.65,816.30,14.72
39.692668,872.51,802.91,15.35
39.708295,868.11,802.64,14.07
39.723922,855.77,794.51,14.28
39.739549,862.61,793.54,15.64
39.755176,858.79,793.03,15.13
39.770803,861.84,795.21,15.40
39.786431,863.80,802.08,13.43
39.802058,874.57,811.67,14.06
39.817685,874.62,821.16,16.03
39.833312,888.35,834.57,11.32
39.848939,895.19,845.75,14.99
39.864566,916.22,856.99,17.62
39.880193,924.86,874.62,14.95
39.895820,932.08,885.96,14.75
39.911447,947.06,898.36,15.43
39.927074,953.44,915.63,15.29
39.942701,954.03,918.69,14.91
39.958328,966.15,929.25,14.25
39.973955,963.16,919.69,15.37
39.989582,966.49,925.13,16.95
40.005209,965.06,926.77,11.47
40.020836,965.75,928.53,13.76
40.036463,953.85,914.20,15.13
40.052090,946.41,909.13,14.90
40.067717,943.71,894.13,13.91
40.083344,933.67,884.92,17.74
40.098971,923.97,879.98,16.11
40.114598,921.69,867.61,17.07
40.130225,911.92,863.90,14.33
40.145852,903.87,854.55,16.06
40.161479,903.74,852.82,12.45
40.177106,895.90,846.47,16.63
40.192733,899.21,844.68,15.45
40.208360,898.22,836.51,14.00
40.223987,894.43,831.73,12.38
40.239615,890.80,828.23,14.35
40.255242,885.81,822.22,15.28
40.270869,887.71,823.09,15.55
40.286496,877.34,817.39,13.88
40.302123,872.43,809.89,14.42
40.317750,868.73,803.24,14.76
40.333377,869.32,805.04,14.21
40.349004,864.00,798.91,13.70
40.364631,861.31,796.08,13.82
40.380258,861.36,794.35,13.99
40.395885,864.35,793.12,15.64
40.411512,863.28,803.10,12.46
40.427139,868.04,809.64,15.62
40.442766,869.41,811.94,14.18
40.458393,881.89,816.89,11.82
40.474020,890.50,837.95,15.26
40.489647,901.90,845.11,15.74
40.505274,916.14,865.67,11.77
40.520901,924.18,878.37,21.16
40.536528,938.08,895.98,14.87
40.552155,950.54,909.37,14.91
40.567782,951.96,914.22,14.48
40.583409,964.37,919.28,15.88
40.599036,967.36,920.61,15.04
40.614663,967.14,924.65,14.65
40.630290,965.56,930.66,11.70
40.645917,963.68,918.36,15.77
40.661544,956.91,920.27,18.83
40.677172,948.25,907.90,16.00
40.692799,951.21,899.38,9.43
40.708426,936.21,884.99,13.75
40.724053,930.87,878.31,14.04
40.739680,926.42,874.84,13.74
40.755307,912.56,863.68,11.64
40.770934,902.77,863.78,16.71
40.786561,905.21,852.95,11.87
40.802188,907.43,846.28,17.09
40.817815,890.51,839.22,13.48
40.833442,893.33,833.52,14.39
40.849069,892.67,840.68,14.06
40.864696,890.29,830.78,16.05
40.880323,892.96,827.73,12.58
40.895950,885.43,824.99,17.90
40.911577,880.39,821.36,14.91
40.927204,877.69,814.80,13.51
40.942831,872.45,811.81,11.58
40.958458,867.74,809.74,12.93
40.974085,861.97,796.04,14.62
40.989712,863.29,792.18,14.86
41.005339,861.90,792.86,12.66
41.020966,862.94,792.84,13.39
41.036593,853.09,796.79,18.21
41.052220,864.46,802.13,13.92
41.067847,865.15,807.44,16.31
41.083474,875.54,809.12,12.93
41.099101,888.17,833.95,13.99
41.114728,898.34,841.21,14.85
41.130356,903.55,855.68,13.90
41.145983,917.70,865.86,12.87
41.161610,932.16,880.90,18.69
41.177237,938.12,895.86,16.42
41.192864,951.13,906.23,15.78
41.208491,955.43,916.77,15.23
41.224118,960.15,922.25,15.31
41.239745,964.52,929.03,15.34
41.255372,957.93,924.68,15.79
41.270999,963.55,928.31,18.96
41.286626,963.37,918.54,12.21
41.302253,953.31,906.77,14.15
41.317880,946.43,905.21,13.64
41.333507,944.64,898.31,15.34
41.349134,936.25,883.54,18.16
41.364761,925.55,869.82,18.30
41.380388,915.78,863.41,17.10
41.396015,908.93,862.02,15.48
41.411642,906.12,854.13,15.74
41.427269,902.79,849.23,16.66
41.442896,896.63,843.04,14.30
41.458523,896.61,841.60,18.37
41.474150,890.03,836.37,17.19
41.489777,892.00,832.67,14.71
41.505404,887.20,834.68,13.83
41.521031,885.00,819.86,14.77
41.536658,881.34,821.86,16.38
41.552285,879.28,810.58,18.69
41.567912,867.82,812.93,14.20
41.583540,868.84,803.16,13.49
41.599167,859.76,798.56,15.29
41.614794,860.50,797.50,15.11
41.630421,854.83,790.05,10.85
41.646048,860.28,796.12,12.64
41.661675,853.68,794.39,15.44
41.677302,864.68,800.07,15.42
41.692929,867.26,802.01,14.11
41.708556,867.93,811.66,14.02
41.724183,880.57,821.62,17.71
41.739810,896.90,836.64,15.08
41.755437,903.48,845.29,14.09
41.771064,916.66,866.63,14.37
41.786691,922.29,881.47,18.50
41.802318,933.62,888.83,12.18
41.817945,949.55,900.22,18.95
41.833572,951.81,918.89,15.42
41.849199,963.72,921.63,16.02
41.864826,963.36,922.99,14.60
41.880453,961.45,929.63,15.88
41.896080,960.20,929.48,15.42
41.911707,963.79,923.89,15.83
41.927334,956.58,918.19,15.43
41.942961,955.26,904.27,13.14
41.958588,945.05,895.70,18.24
41.974215,932.52,887.68,15.87
41.989842,926.81,879.65,13.78
42.005469,917.97,867.86,14.20
42.021096,911.09,864.44,14.67
42.036724,909.07,848.11,15.13
42.052351,902.19,845.93,14.36
42.067978,900.21,849.57,16.78
42.083605,896.16,840.88,14.70
42.099232,888.77,837.96,17.29
42.114859,890.30,831.71,14.30
42.130486,891.59,824.56,14.00
42.146113,881.86,831.65,13.19
42.161740,886.30,823.76,15.34
42.177367,876.27,820.10,16.45
42.192994,872.42,810.07,13.61
42.208621,866.08,808.04,13.49
42.224248,863.36,800.99,17.74
42.239875,863.67,795.77,14.08
42.255502,860.97,787.26,14.17
42.271129,854.46,787.79,20.06
42.286756,858.41,791.87,16.72
42.302383,854.64,795.09,17.16
42.318010,867.10,792.61,13.80
42.333637,865.89,806.46,16.26
42.349264,877.95,816.22,15.29
42.364891,885.96,825.07,14.29
42.380518,895.27,835.02,12.35
42.396145,906.95,853.56,13.00
42.411772,917.16,868.84,9.02
42.427399,932.19,879.87,17.53
42.443026,940.54,894.07,15.44
42.458653,945.35,904.64,12.30
42.474281,951.64,915.51,14.79
42.489908,960.27,920.49,12.42
42.505535,961.54,924.02,13.35
42.521162,964.05,924.18,14.70
42.536789,959.25,921.00,14.75
42.552416,958.49,912.40,15.49
42.568043,949.51,909.86,14.03
42.583670,947.04,898.32,14.65
42.599297,934.74,896.02,14.74
42.614924,929.04,879.33,10.80
42.630551,917.47,872.72,17.90
42.646178,914.56,867.03,15.42
42.661805,910.00,859.26,13.40
42.677432,904.87,854.58,15.19
42.693059,902.10,845.87,15.48
42.708686,896.75,841.59,14.91
42.724313,887.99,834.70,16.25
42.739940,893.14,835.37,16.63
42.755567,888.58,832.00,16.81
42.771194,883.68,827.96,12.14
42.786821,882.01,822.61,16.41
42.802448,873.31,815.67,14.53
42.818075,870.08,815.22,13.42
42.833702,872.57,800.26,12.25
42.849329,865.01,804.18,16.47
42.864956,860.20,802.41,11.05
42.880583,854.23,788.55,14.14
42.896210,855.64,795.16,18.47
42.911837,854.95,790.05,16.76
42.927465,855.75,792.03,14.90
42.943092,854.99,796.34,13.87
42.958719,862.62,798.50,14.96
42.974346,867.97,811.34,15.56
42.989973,878.53,816.83,14.06
43.005600,894.98,830.54,14.96
43.021227,899.87,840.76,12.30
43.036854,912.49,853.90,18.94
43.052481,923.77,877.15,13.76
43.068108,936.21,886.94,14.74
43.083735,947.26,904.72,15.30
43.099362,951.16,908.95,15.65
43.114989,959.75,922.99,10.39
43.130616,963.61,924.50,16.15
43.146243,960.89,922.08,12.70
43.161870,959.70,926.43,17.48
43.177497,959.41,919.33,12.24
43.193124,948.59,907.80,14.32
43.208751,945.51,900.25,16.87
43.224378,939.96,894.66,15.88
43.240005,933.17,877.54,13.58
43.255632,919.26,879.62,17.25
43.271259,915.18,865.87,13.27
43.286886,907.86,859.18,14.20
43.302513,900.50,850.43,11.06
43.318140,895.03,851.48,16.69
43.333767,897.90,842.28,20.10
43.349394,894.01,835.54,15.62
43.365021,889.12,832.72,12.20
43.380649,884.40,827.73,16.63
43.396276,882.99,828.21,12.99
43.411903,886.93,822.81,17.18
43.427530,880.93,817.60,11.22
43.443157,873.14,815.39,13.98
43.458784,869.08,801.16,14.15
43.474411,865.69,804.78,12.86
43.490038,855.15,803.96,12.99
43.505665,858.84,797.68,16.84
43.521292,857.94,787.34,11.93
43.536919,854.15,784.47,17.90
43.552546,854.47,787.10,15.59
43.568173,852.05,791.95,14.33
43.583800,860.10,803.53,15.65
43.599427,868.97,802.01,15.52
43.615054,875.29,813.73,16.95
43.630681,881.01,830.20,14.39
43.646308,897.25,843.47,16.48
43.661935,907.99,856.94,15.51
43.677562,918.09,873.31,13.36
43.693189,929.87,888.40,12.07
43.708816,943.47,895.34,15.88
43.724443,946.77,905.99,15.40
43.740070,952.74,916.28,15.01
43.755697,964.36,920.73,15.93
43.771324,964.44,923.41,14.26
43.786951,962.51,919.21,15.32
43.802578,957.23,915.70,15.74
43.818205,949.59,907.80,16.85
43.833833,945.21,904.28,13.99
43.849460,942.95,893.41,17.45
43.865087,929.18,887.32,17.69
43.880714,923.73,882.04,16.79
43.896341,918.37,866.51,12.03
43.911968,908.55,864.07,11.62
43.927595,903.22,854.52,12.20
43.943222,901.42,846.28,12.12
43.958849,895.12,842.67,14.76
43.974476,895.50,838.86,10.57
43.990103,885.97,832.88,13.12
44.005730,884.61,826.17,13.04
44.021357,886.61,825.38,13.91
44.036984,881.50,820.72,11.68
44.052611,876.13,820.77,11.15
44.068238,872.56,816.35,15.99
44.083865,868.26,808.65,13.95
44.099492,860.98,802.05,13.87
44.115119,860.17,797.03,12.92
44.130746,855.46,792.04,15.50
44.146373,855.69,790.84,17.13
44.162000,857.91,790.68,11.97
44.177627,856.29,786.70,13.98
44.193254,852.56,788.60,17.01
44.208881,859.12,799.55,17.21
44.224508,868.76,796.81,14.70
44.240135,872.89,817.19,15.89
44.255762,877.11,822.16,14.93
44.271390,892.10,843.39,16.76
44.287017,902.75,856.79,13.16
44.302644,912.27,869.52,14.19
44.318271,926.14,878.57,16.16
44.333898,934.35,893.39,16.27
44.349525,943.82,901.35,14.96
44.365152,950.02,914.19,17.37
44.380779,954.41,919.73,15.22
44.396406,957.01,923.27,13.19
44.412033,959.82,922.37,15.30
44.427660,955.03,916.44,12.21
44.443287,953.28,913.53,13.51
44.458914,947.08,910.19,13.41
44.474541,941.69,900.34,14.30
44.490168,929.49,888.41,13.69
44.505795,924.86,879.69,17.77
44.521422,919.50,866.31,13.73
44.537049,912.71,860.37,13.52
44.552676,907.80,848.09,14.33
44.568303,900.56,847.09,15.95
44.583930,896.78,837.36,14.09
44.599557,890.58,834.84,15.69
44.615184,889.43,833.29,14.62
44.630811,882.68,829.18,9.55
44.646438,884.52,830.07,14.33
44.662065,883.12,826.09,13.63
44.677692,879.03,816.96,17.76
44.693319,875.59,812.00,15.84
44.708946,870.35,810.67,12.61
44.724574,865.37,806.16,12.39
44.740201,861.05,800.65,14.67
44.755828,853.68,791.75,16.12
44.771455,852.23,791.21,14.94
44.787082,852.83,791.28,14.00
44.802709,849.82,785.78,15.56
44.818336,855.03,782.87,16.55
44.833963,856.93,790.32,19.40
44.849590,859.87,800.13,14.58
44.865217,867.01,806.02,11.98
44.880844,875.41,820.55,15.96
44.896471,886.82,831.04,12.98
44.912098,898.99,840.05,13.51
44.927725,909.96,861.68,11.70
44.943352,925.01,873.51,15.65
44.958979,931.90,886.16,17.10
44.974606,941.11,903.19,16.69
44.990233,948.36,906.93,14.34
45.005860,951.96,917.76,13.14
45.021487,956.43,916.31,15.10
45.037114,957.28,915.73,12.76
45.052741,956.78,910.03,15.69
45.068368,948.85,913.95,19.66
45.083995,946.69,909.20,14.72
45.099622,944.84,903.85,12.33
45.115249,936.64,888.55,15.85
45.130876,924.18,878.19,19.26
45.146503,922.33,873.32,13.25
45.162130,914.57,863.52,15.09
45.177758,903.11,855.86,13.95
45.193385,899.90,849.13,17.37
45.209012,892.84,840.00,15.32
45.224639,894.35,837.63,18.53
45.240266,888.70,837.03,14.88
45.255893,889.31,833.86,15.18
45.271520,879.85,825.04,14.77
45.287147,878.97,821.75,14.55
45.302774,880.17,818.57,15.86
45.318401,871.07,815.44,17.13
45.334028,872.23,812.64,15.53
45.349655,863.56,809.70,18.68
45.365282,864.88,805.99,15.76
45.380909,859.54,793.26,15.84
45.396536,852.73,785.30,15.29
45.412163,850.14,781.76,11.50
45.427790,850.70,782.44,19.58
45.443417,851.58,789.95,17.24
45.459044,850.68,788.72,16.15
45.474671,853.67,790.74,16.32
45.490298,867.54,798.49,16.40
45.505925,876.63,814.28,12.38
45.521552,882.65,827.05,14.12
45.537179,888.52,838.95,13.63
45.552806,898.38,858.06,15.96
45.568433,916.57,864.69,16.87
45.584060,929.15,880.04,18.42
45.599687,932.31,893.52,16.48
45.615314,944.71,897.57,15.03
45.630942,949.33,908.79,11.59
45.646569,952.54,922.99,15.01
45.662196,955.45,916.78,15.15
45.677823,957.68,918.72,12.38
45.693450,954.66,916.40,16.94
45.709077,949.21,906.10,17.74
45.724704,945.99,900.69,16.05
45.740331,937.08,894.79,16.52
45.755958,927.91,885.70,12.21
45.771585,919.16,872.34,14.39
45.787212,915.65,862.01,14.33
45.802839,906.75,857.51,16.87
45.818466,899.73,847.11,16.05
45.834093,898.16,840.20,14.17
45.849720,894.04,835.20,13.65
45.865347,889.39,830.66,14.28
45.880974,891.01,827.87,18.15
45.896601,885.17,829.57,21.65
45.912228,879.96,824.35,13.71
45.927855,872.63,824.94,15.87
45.943482,871.81,812.66,16.05
45.959109,873.51,812.61,15.32
45.974736,865.32,808.02,15.04
45.990363,865.29,800.36,14.40
46.005990,856.54,798.96,16.64
46.021617,853.09,794.78,16.29
46.037244,850.43,780.75,15.24
46.052871,850.29,785.79,14.55
46.068499,850.91,788.33,15.84
46.084126,857.26,789.29,17.83
46.099753,851.99,794.48,14.17
46.115380,855.65,794.44,15.46
46.131007,863.52,808.11,16.44
46.146634,871.93,822.66,15.70
46.162261,885.63,830.55,16.65
46.177888,895.44,847.36,11.79
46.193515,910.27,865.42,15.45
46.209142,921.38,875.18,14.55
46.224769,934.66,886.67,16.16
46.240396,938.38,905.90,14.56
46.256023,948.03,910.76,14.21
46.271650,951.04,914.40,10.31
46.287277,953.80,916.61,15.54
46.302904,953.88,916.62,9.77
46.318531,951.96,911.92,17.65
46.334158,949.97,914.21,15.73
46.349785,946.23,905.04,15.54
46.365412,933.14,896.21,11.62
46.381039,931.57,887.93,17.00
46.396666,921.45,871.68,16.46
46.412293,922.75,864.90,15.28
46.427920,910.53,857.37,18.99
46.443547,903.98,856.40,14.69
46.459174,896.29,841.62,12.96
46.474801,889.42,837.89,17.14
46.490428,887.79,835.57,13.81
46.506055,890.71,830.84,17.36
46.521683,880.88,819.89,18.12
46.537310,876.79,823.08,12.80
46.552937,882.63,822.79,16.57
46.568564,876.98,814.95,12.73
46.584191,869.63,808.61,15.58
46.599818,865.99,803.03,17.59
46.615445,861.90,805.30,16.03
46.631072,859.13,799.23,14.25
46.646699,857.05,787.97,17.37
46.662326,852.43,791.36,15.58
46.677953,846.68,787.28,15.41
46.693580,840.63,782.83,15.92
46.709207,846.98,780.19,14.90
46.724834,853.35,785.56,12.73
46.740461,858.93,792.66,13.35
46.756088,862.89,802.63,15.04
46.771715,872.64,816.58,16.45
46.787342,879.60,822.60,12.08
46.802969,890.41,842.23,12.29
46.818596,904.31,853.25,13.00
46.834223,922.05,872.53,18.05
46.849850,930.93,880.53,13.70
46.865477,937.79,892.10,11.36
46.881104,944.29,901.17,14.61
46.896731,947.25,911.12,17.42
46.912358,953.80,916.27,14.95
46.927985,954.32,920.38,13.80
46.943612,953.03,915.98,11.83
46.959239,948.06,918.24,14.77
46.974867,942.03,905.96,14.06
46.990494,935.37,901.78,14.38
47.006121,928.85,893.30,14.53
47.021748,923.73,874.52,14.77
47.037375,920.36,867.56,14.73
47.053002,913.12,855.23,13.98
47.068629,901.98,852.30,12.74
47.084256,899.74,844.42,14.56
47.099883,896.11,842.40,19.62
47.115510,892.62,827.13,14.19
47.131137,886.14,830.02,16.11
47.146764,887.05,824.65,13.98
47.162391,879.50,819.66,17.42
47.178018,880.51,820.49,15.00
47.193645,874.86,818.38,14.00
47.209272,870.31,813.74,14.43
47.224899,870.55,810.44,13.72
47.240526,861.52,797.35,16.61
47.256153,862.71,796.44,16.86
47.271780,855.13,795.70,16.90
47.287407,845.98,786.28,18.99
47.303034,847.37,785.73,17.73
47.318661,844.28,783.14,12.05
47.334288,842.06,781.27,14.41
47.349915,847.60,786.04,13.84
47.365542,851.35,795.50,17.76
47.381169,859.53,802.26,15.79
47.396796,868.00,807.33,17.84
47.412423,881.25,817.54,13.56
47.428051,889.07,832.14,14.55
47.443678,898.61,844.41,14.41
47.459305,908.46,864.83,13.06
47.474932,918.49,878.45,15.70
47.490559,930.96,890.57,14.40
47.506186,939.55,896.64,14.39
47.521813,944.76,907.63,14.86
47.537440,951.92,913.46,15.72
47.553067,955.60,914.34,15.64
47.568694,956.47,913.60,17.85
47.584321,949.85,918.29,13.47
47.599948,945.67,910.92,17.96
47.615575,941.42,899.34,15.25
47.631202,935.88,890.87,12.91
47.646829,917.89,879.12,16.46
47.662456,920.48,877.14,14.52
47.678083,913.38,865.35,15.35
47.693710,900.80,858.96,13.23
47.709337,901.82,848.90,14.48
47.724964,896.46,842.56,16.07
47.740591,891.75,838.19,12.07
47.756218,888.19,830.96,15.08
47.771845,880.16,828.18,13.00
47.787472,878.44,823.48,11.53
47.803099,876.83,821.30,18.34
47.818726,876.58,819.48,14.04
47.834353,868.77,814.38,16.87
47.849980,868.01,809.55,13.46
47.865608,866.02,812.62,15.17
47.881235,858.78,800.10,13.73
47.896862,860.02,796.64,19.04
47.912489,850.98,788.57,15.86
47.928116,843.67,788.26,19.59
47.943743,845.33,786.79,15.11
47.959370,843.79,786.50,12.44
47.974997,845.47,789.86,12.45
47.990624,845.25,788.61,9.86
48.006251,859.08,793.96,11.57
48.021878,861.64,800.65,15.45
48.037505,873.89,815.25,13.63
48.053132,880.39,823.43,17.70
48.068759,892.79,843.09,16.41
48.084386,900.04,856.96,13.76
48.100013,917.67,871.61,20.26
48.115640,922.23,883.26,16.19
48.131267,933.55,893.93,15.98
48.146894,938.00,904.20,14.42
48.162521,947.81,917.69,14.60
48.178148,955.91,918.80,18.76
48.193775,948.24,916.61,15.13
48.209402,953.06,920.43,13.62
48.225029,948.10,912.48,15.89
48.240656,944.68,900.91,16.35
48.256283,932.24,891.74,13.75
48.271910,923.79,887.56,14.51
48.287537,918.81,877.05,13.80
48.303164,920.60,862.73,17.91
48.318792,905.01,859.45,14.36
48.334419,901.10,848.08,15.53
48.350046,895.23,846.44,14.91
48.365673,888.53,839.00,11.20
48.381300,885.76,828.01,12.65
48.396927,888.65,825.73,15.19
48.412554,874.72,822.61,17.06
48.428181,880.17,816.98,13.48
48.443808,880.34,815.78,15.24
48.459435,876.43,809.57,13.55
48.475062,869.00,811.10,12.06
48.490689,866.49,807.29,13.20
48.506316,852.89,801.74,12.79
48.521943,859.57,790.76,16.17
48.537570,853.00,794.76,16.08
48.553197,849.55,786.96,14.34
48.568824,845.28,780.78,16.00
48.584451,843.94,778.70,14.04
48.600078,846.59,781.29,16.29
48.615705,847.24,788.66,17.07
48.631332,850.55,791.20,15.02
48.646959,856.57,803.20,13.25
48.662586,865.82,811.17,11.56
48.678213,874.98,817.53,10.48
48.693840,891.57,834.61,15.57
48.709467,905.15,854.29,18.01
48.725094,909.20,861.29,11.37
48.740721,920.27,885.84,12.59
48.756348,935.60,887.97,17.45
48.771976,942.24,903.26,16.19
48.787603,945.51,907.67,16.15
48.803230,951.49,914.08,20.72
48.818857,951.74,917.91,18.81
48.834484,952.60,918.23,10.91
48.850111,945.13,907.77,15.50
48.865738,943.16,905.56,14.15
48.881365,937.83,895.78,13.30
48.896992,930.65,887.26,14.02
48.912619,923.97,881.33,17.43
48.928246,917.33,872.14,15.84
48.943873,910.86,862.18,16.21
48.959500,901.47,854.18,12.74
48.975127,889.84,840.15,16.20
48.990754,891.49,837.04,13.88
49.006381,886.35,828.68,17.87
49.022008,883.28,831.26,19.68
49.037635,882.54,829.08,16.73
49.053262,877.66,827.25,13.45
49.068889,872.92,821.94,14.58
49.084516,872.50,812.91,17.35
49.100143,868.12,809.81,18.13
49.115770,863.04,809.37,14.77
49.131397,857.69,811.59,14.65
49.147024,855.00,798.20,15.25
49.162651,855.47,792.28,13.82
49.178278,847.76,786.20,15.91
49.193905,840.82,778.56,15.87
49.209532,845.70,779.45,11.49
49.225160,842.40,788.10,13.69
49.240787,846.51,784.37,14.75
49.256414,849.56,789.56,17.33
49.272041,855.21,794.73,14.05
49.287668,864.57,808.30,16.63
49.303295,871.79,810.25,19.54
49.318922,883.10,835.64,13.89
49.334549,897.88,845.91,17.19
49.350176,905.28,865.71,15.59
49.365803,915.66,872.31,13.16
49.381430,926.42,886.51,12.45
49.397057,943.13,896.99,15.96
49.412684,941.43,903.39,11.97
49.428311,948.21,911.34,14.55
49.443938,952.76,915.22,15.07
49.459565,948.42,917.68,14.27
49.475192,948.69,916.07,14.83
49.490819,945.16,906.38,13.50
49.506446,933.66,901.41,14.98
49.522073,930.41,883.82,14.31
49.537700,926.07,878.32,14.47
49.553327,917.45,875.35,14.86
49.568954,910.47,862.21,19.03
49.584581,896.79,850.25,13.48
49.600208,896.38,842.93,14.79
49.615835,891.46,844.13,13.42
49.631462,888.68,831.43,13.18
49.647089,884.26,832.33,15.19
49.662716,878.35,818.69,15.09
49.678344,875.02,823.47,14.57
49.693971,870.78,819.15,15.94
49.709598,871.94,819.61,17.86
49.725225,863.72,813.94,13.05
49.740852,861.89,807.26,15.20
49.756479,860.90,800.78,14.30
49.772106,857.59,792.18,13.26
49.787733,847.57,789.84,14.65
49.803360,849.98,788.31,12.57
49.818987,841.99,782.43,16.91
49.834614,845.08,787.55,14.94
49.850241,843.90,779.36,15.79
49.865868,842.37,779.03,13.18
49.881495,850.45,784.92,19.23
49.897122,849.26,791.01,15.17
49.912749,862.36,801.52,18.23
49.928376,868.16,817.06,18.29
49.944003,883.69,825.25,18.34
49.959630,885.57,839.00,15.89
49.975257,900.36,850.16,17.35
49.990884,909.80,871.39,15.01
50.006511,922.84,882.77,11.97
50.022138,933.99,895.23,13.42
50.037765,938.03,905.76,16.45
50.053392,946.67,903.34,15.70
50.069019,951.64,916.04,15.48
50.084646,950.41,914.25,14.15
50.100273,950.93,912.49,13.31
50.115901,947.54,908.65,15.80
50.131528,940.68,900.88,15.30
50.147155,931.13,901.88,15.48
50.162782,927.76,880.20,15.51
50.178409,917.69,870.95,10.46
50.194036,908.07,869.84,13.78
50.209663,901.59,855.41,14.72
50.225290,894.11,848.56,11.77
50.240917,890.62,845.93,14.50
50.256544,887.64,839.42,13.32
50.272171,887.70,833.12,16.33
50.287798,881.70,829.37,17.68
50.303425,877.39,822.38,11.97
50.319052,868.23,822.18,17.95
50.334679,874.39,817.05,14.61
50.350306,866.97,816.38,12.36
50.365933,866.91,809.98,18.31
50.381560,860.41,808.14,14.76
50.397187,853.82,795.16,16.04
50.412814,855.90,793.47,15.76
50.428441,845.93,795.40,17.42
50.444068,842.27,781.69,15.20
50.459695,843.83,782.82,16.40
50.475322,840.48,779.70,17.31
50.490949,844.35,780.38,11.11
50.506576,843.45,786.78,17.45
50.522203,844.66,791.43,16.42
50.537830,852.22,801.58,11.32
50.553457,864.50,808.07,13.35
50.569085,872.42,818.67,15.87
50.584712,885.89,836.06,16.41
50.600339,899.79,851.12,13.83
50.615966,913.43,868.88,16.59
50.631593,919.12,878.75,15.56
50.647220,931.59,886.97,12.75
50.662847,938.35,901.13,16.70
50.678474,941.94,904.60,14.79
50.694101,948.84,912.87,17.40
50.709728,946.17,919.43,13.94
50.725355,950.98,913.91,13.32
50.740982,947.44,911.31,15.82
50.756609,942.52,904.07,14.86
50.772236,932.30,898.58,19.58
50.787863,926.67,889.34,18.53
50.803490,920.63,875.85,16.04
50.819117,907.12,866.03,15.81
50.834744,906.55,861.56,15.48
50.850371,894.86,851.27,15.77
50.865998,888.96,840.53,14.43
50.881625,889.56,834.99,16.11
50.897252,886.70,839.87,13.28
50.912879,877.84,830.86,12.43
50.928506,877.27,831.29,16.38
50.944133,868.03,827.01,14.68
50.959760,871.35,822.73,16.47
50.975387,864.81,814.79,16.96
50.991014,864.00,809.93,12.55
51.006641,862.02,804.74,15.36
51.022269,858.26,804.88,16.89
51.037896,855.41,793.91,12.92
51.053523,848.35,793.61,17.86
51.069150,845.35,786.98,13.73
51.084777,846.04,784.36,15.46
51.100404,840.11,783.50,17.63
51.116031,843.83,779.40,17.49
51.131658,845.09,785.80,14.59
51.147285,847.65,781.78,18.17
51.162912,857.51,796.44,13.36
51.178539,864.04,811.36,12.67
51.194166,865.18,813.88,14.68
51.209793,879.35,828.40,13.91
51.225420,890.08,842.99,15.90
51.241047,901.58,864.32,16.27
51.256674,911.83,872.69,18.47
51.272301,923.43,886.62,16.42
51.287928,935.39,895.57,13.34
51.303555,941.80,900.24,13.61
51.319182,944.61,907.64,14.59
51.334809,951.49,916.12,14.96
51.350436,944.64,911.16,13.53
51.366063,941.59,912.39,14.89
51.381690,935.97,902.06,17.30
51.397317,936.69,900.03,14.94
51.412944,926.04,893.18,14.14
51.428571,921.81,885.07,15.80
51.444198,913.35,874.95,13.27
51.459825,912.32,863.62,17.89
51.475453,904.15,851.77,11.58
51.491080,899.96,850.26,14.95
51.506707,889.31,845.03,15.68
51.522334,886.15,840.64,16.15
51.537961,881.30,832.14,15.99
51.553588,875.78,824.84,15.53
51.569215,879.98,829.62,15.17
51.584842,869.74,816.75,14.83
51.600469,867.42,812.80,12.62
51.616096,868.09,813.47,13.31
51.631723,861.09,804.24,18.03
51.647350,862.10,806.09,14.52
51.662977,852.89,798.36,16.00
51.678604,854.05,796.21,16.43
51.694231,842.86,788.40,18.05
51.709858,846.16,785.75,14.77
51.725485,836.10,783.59,16.15
51.741112,842.95,777.81,15.47
51.756739,844.23,780.56,17.32
51.772366,849.69,785.12,15.68
51.787993,850.16,789.37,17.74
51.803620,855.92,796.17,14.18
51.819247,863.77,809.76,14.97
51.834874,874.12,821.54,15.94
51.850501,892.02,837.84,15.05
51.866128,899.01,844.83,12.66
51.881755,910.79,871.98,15.62
51.897382,916.22,874.26,14.34
51.913010,922.41,893.34,14.91
51.928637,941.21,898.54,15.55
51.944264,944.75,912.26,16.92
51.959891,946.70,911.99,15.77
51.975518,948.90,916.77,18.26
51.991145,950.67,913.89,18.00
52.006772,942.22,913.20,10.93
52.022399,935.79,906.05,11.62
52.038026,932.40,897.26,16.87
52.053653,922.24,888.78,14.62
52.069280,917.90,878.99,14.73
52.084907,910.70,865.82,13.08
52.100534,899.21,860.74,15.14
52.116161,903.17,851.34,12.29
52.131788,894.42,842.33,18.38
52.147415,882.93,843.51,11.93
52.163042,883.88,833.20,16.10
52.178669,879.93,824.05,19.76
52.194296,874.05,826.67,14.62
52.209923,875.64,821.46,14.48
52.225550,875.46,825.36,9.53
52.241177,869.84,812.64,16.78
52.256804,865.15,813.63,14.39
52.272431,863.38,807.49,15.36
52.288058,857.45,801.64,13.68
52.303685,853.34,793.72,16.99
52.319312,851.75,789.57,14.80
52.334939,848.14,786.42,16.05
52.350566,845.75,785.83,12.69
52.366194,841.81,777.86,11.34
52.381821,840.64,779.35,16.58
52.397448,838.42,783.22,13.76
52.413075,843.84,790.59,16.11
52.428702,851.06,793.37,14.76
52.444329,856.32,812.53,13.29
52.459956,869.20,811.66,19.41
52.475583,880.35,831.56,14.39
52.491210,888.26,847.06,16.20
52.506837,899.59,856.99,13.55
52.522464,913.70,866.88,13.62
52.538091,925.38,886.30,15.84
52.553718,925.32,896.28,14.52
52.569345,941.49,904.26,18.32
52.584972,943.22,905.80,15.64
52.600599,946.08,917.83,12.72
52.616226,947.50,915.84,15.07
52.631853,947.15,915.26,15.35
52.647480,938.60,916.39,14.60
52.663107,935.32,903.61,13.73
52.678734,929.94,897.21,15.63
52.694361,918.37,881.54,14.32
52.709988,915.27,875.91,19.30
52.725615,913.47,867.81,15.48
52.741242,898.21,857.15,13.34
52.756869,895.49,852.99,13.24
52.772496,889.19,846.35,16.28
52.788123,884.22,833.15,18.13
52.803750,881.69,833.56,15.58
52.819378,872.81,827.09,12.99
52.835005,875.30,823.36,15.46
52.850632,868.87,816.49,14.61
52.866259,866.80,819.80,17.21
52.881886,870.26,809.10,15.81
52.897513,862.82,814.38,15.21
52.913140,858.81,809.36,14.70
52.928767,851.01,799.55,13.96
52.944394,856.23,796.54,14.90
52.960021,840.45,789.11,15.24
52.975648,848.22,785.07,18.37
52.991275,844.14,780.32,20.68
53.006902,839.42,785.64,16.10
53.022529,847.94,781.10,12.67
53.038156,845.35,784.00,16.08
53.053783,849.94,798.37,19.52
53.069410,858.90,803.03,16.24
53.085037,863.22,806.28,15.55
53.100664,869.57,822.89,15.75
53.116291,885.31,838.29,14.21
53.131918,898.93,848.85,13.34
53.147545,909.63,865.95,14.95
53.163172,916.76,874.92,16.04
53.178799,932.25,894.02,17.10
53.194426,935.56,901.15,15.58
53.210053,944.26,914.13,16.05
53.225680,949.25,915.88,12.50
53.241307,953.50,914.50,15.89
53.256934,943.82,913.94,14.46
53.272562,945.52,913.90,13.65
53.288189,938.78,906.83,14.99
53.303816,933.77,896.98,14.01
53.319443,929.03,883.26,16.17
53.335070,917.60,878.91,17.04
53.350697,909.05,875.24,13.19
53.366324,907.71,859.42,20.81
53.381951,900.74,851.50,12.65
53.397578,896.10,845.21,15.51
53.413205,881.44,844.10,11.75
53.428832,879.54,833.33,11.75
53.444459,880.38,832.18,12.17
53.460086,878.26,825.36,14.45
53.475713,869.87,820.48,18.54
53.491340,870.64,822.92,13.40
53.506967,869.34,817.26,14.14
53.522594,866.58,811.62,16.91
53.538221,862.24,807.18,18.08
53.553848,863.92,802.86,14.15
53.569475,860.10,804.32,14.61
53.585102,853.61,792.65,14.39
53.600729,845.73,783.94,16.14
53.616356,848.65,780.80,15.65
53.631983,846.04,782.95,12.14
53.647610,842.93,778.67,15.94
53.663237,841.27,784.09,13.41
53.678864,847.71,791.09,16.70
53.694491,845.38,797.08,17.00
53.710119,862.20,800.67,15.96
53.725746,872.62,818.82,12.60
53.741373,879.15,827.46,17.45
53.757000,884.43,844.56,15.68
53.772627,904.15,857.65,15.29
53.788254,915.26,872.81,16.52
53.803881,925.75,887.46,12.88
53.819508,935.61,899.57,14.62
53.835135,945.44,907.24,16.95
53.850762,947.85,908.63,19.47
53.866389,945.49,918.93,16.21
53.882016,949.91,914.98,13.71
53.897643,949.62,915.69,16.61
53.913270,943.75,906.70,17.42
53.928897,938.61,904.67,15.34
53.944524,936.35,895.25,12.80
53.960151,921.37,888.90,13.89
53.975778,912.22,873.87,13.90
53.991405,907.48,866.43,13.96
54.007032,903.57,859.17,18.56
54.022659,895.38,848.71,14.85
54.038286,890.70,843.16,15.94
54.053913,886.19,840.77,13.69
54.069540,880.98,836.15,16.03
54.085167,879.30,825.02,17.88
54.100794,875.75,827.34,12.83
54.116421,878.61,822.24,16.86
54.132048,864.77,818.11,15.99
54.147675,867.21,816.37,14.06
54.163303,866.11,809.53,13.95
54.178930,865.05,804.14,14.30
54.194557,858.73,800.38,14.92
54.210184,851.15,797.67,15.36
54.225811,845.62,787.94,16.54
54.241438,844.70,788.18,15.48
54.257065,845.51,782.44,11.65
54.272692,839.40,776.30,15.36
54.288319,840.19,782.38,15.55
54.303946,848.98,789.52,12.32
54.319573,846.40,787.99,13.71
54.335200,857.93,805.80,17.53
54.350827,864.54,808.64,15.03
54.366454,870.45,825.72,17.56
54.382081,887.40,836.01,17.42
54.397708,897.21,847.03,12.06
54.413335,911.28,865.10,19.02
54.428962,919.18,877.06,16.49
54.444589,933.48,894.26,16.92
54.460216,937.31,900.18,15.99
54.475843,948.52,913.24,14.95
54.491470,947.62,923.89,14.14
54.507097,950.18,915.56,14.02
54.522724,945.81,919.26,14.79
54.538351,946.82,913.82,17.43
54.553978,942.32,905.62,14.28
54.569605,933.99,900.25,13.88
54.585232,930.82,893.39,15.27
54.600859,922.14,881.67,18.44
54.616487,914.72,870.54,17.80
54.632114,908.66,863.75,16.53
54.647741,895.61,852.43,14.28
54.663368,888.69,844.44,13.93
54.678995,891.75,843.06,15.41
54.694622,884.42,839.68,18.24
54.710249,881.55,833.46,16.80
54.725876,877.59,828.99,12.68
54.741503,881.89,820.36,15.09
54.757130,868.66,821.38,13.37
54.772757,871.53,821.54,14.45
54.788384,867.34,815.81,14.91
54.804011,864.96,810.34,16.80
54.819638,858.09,802.98,14.56
54.835265,853.32,794.65,14.30
54.850892,851.03,793.94,20.17
54.866519,848.68,791.17,16.24
54.882146,849.44,787.69,13.89
54.897773,837.66,790.28,15.15
54.913400,843.33,783.88,14.49
54.929027,839.81,786.49,11.12
54.944654,846.41,789.53,17.97
54.960281,851.22,796.74,12.88
54.975908,859.38,807.86,12.00
54.991535,867.28,815.23,13.82
55.007162,878.49,831.63,13.54
55.022789,892.42,845.88,14.08
55.038416,902.92,858.95,14.19
55.054043,912.79,877.11,13.86
55.069671,924.75,889.02,13.57
55.085298,935.62,903.30,17.00
55.100925,944.41,906.94,16.69
55.116552,952.35,916.33,12.52
55.132179,948.02,914.42,13.71
55.147806,954.27,921.82,12.12
55.163433,949.98,920.28,13.30
55.179060,948.83,914.68,13.01
55.194687,938.42,902.90,19.04
55.210314,929.50,902.55,14.76
55.225941,924.33,888.84,13.63
55.241568,915.52,878.87,16.88
55.257195,911.52,867.63,15.76
55.272822,905.29,857.32,18.09
55.288449,895.41,854.31,14.58
55.304076,886.53,838.71,14.17
55.319703,883.93,840.60,16.85
55.335330,885.99,832.01,13.93
55.350957,883.50,832.34,14.97
55.366584,877.52,829.03,10.98
55.382211,878.09,828.34,12.13
55.397838,871.73,821.27,15.27
55.413465,865.43,820.39,15.94
55.429092,869.71,809.45,14.87
55.444719,860.76,813.43,13.79
55.460346,859.54,797.32,17.80
55.475973,854.66,798.93,17.03
55.491600,852.27,793.46,14.14
55.507228,843.80,787.63,14.26
55.522855,847.43,783.32,16.42
55.538482,844.62,783.86,14.07
55.554109,845.47,788.04,12.69
55.569736,847.96,788.41,12.25
55.585363,855.40,787.77,13.57
55.600990,855.73,806.62,12.32
55.616617,864.49,810.04,13.56
55.632244,875.39,825.00,12.55
55.647871,889.54,842.57,13.49
55.663498,898.42,848.30,15.65
55.679125,907.88,865.55,16.64
55.694752,922.72,887.42,13.90
55.710379,929.47,892.87,13.68
55.726006,945.33,907.11,16.52
55.741633,950.63,917.45,15.62
55.757260,949.11,923.52,15.22
55.772887,946.69,925.07,14.79
55.788514,952.71,919.30,18.00
55.804141,946.46,913.38,15.15
55.819768,945.07,903.63,14.61
55.835395,933.21,906.00,13.54
55.851022,927.92,892.11,14.77
55.866649,921.81,879.46,12.13
55.882276,910.79,867.54,13.97
55.897903,900.88,860.39,17.91
55.913530,894.76,857.11,14.92
55.929157,899.56,845.89,16.55
55.944784,885.92,844.86,15.56
55.960412,883.48,840.89,12.59
55.976039,886.39,835.19,11.36
55.991666,878.38,827.81,18.15
56.007293,878.67,824.02,13.11
56.022920,873.66,822.35,12.93
56.038547,869.32,817.93,10.84
56.054174,870.79,817.09,17.55
56.069801,865.92,816.05,12.24
56.085428,861.30,807.50,12.99
56.101055,853.69,802.63,10.90
56.116682,856.68,794.99,14.05
56.132309,850.32,793.17,17.69
56.147936,846.92,784.63,15.99
56.163563,840.81,786.69,11.08
56.179190,846.78,784.72,13.02
56.194817,846.65,787.19,17.13
56.210444,845.21,792.78,13.45
56.226071,855.46,803.42,15.90
56.241698,863.91,810.04,12.32
56.257325,868.35,820.85,15.27
56.272952,879.95,830.60,14.66
56.288579,895.18,846.15,14.67
56.304206,907.89,861.20,14.88
56.319833,915.44,870.64,16.12
56.335460,927.85,891.53,17.07
56.351087,944.28,903.59,14.18
56.366714,946.00,914.05,16.11
56.382341,950.74,919.28,14.53
56.397968,952.34,915.09,17.37
56.413596,952.66,919.29,12.52
56.429223,947.98,914.61,13.11
56.444850,943.06,912.47,15.95
56.460477,936.07,904.60,13.76
56.476104,932.59,898.46,14.81
56.491731,927.61,882.68,12.22
56.507358,918.21,877.76,10.47
56.522985,909.89,860.58,16.55
56.538612,898.73,856.71,9.37
56.554239,898.50,848.65,17.17
56.569866,894.94,844.78,13.54
56.585493,891.41,839.98,14.71
56.601120,878.59,831.98,15.64
56.616747,882.01,836.43,14.05
56.632374,887.78,826.98,16.64
56.648001,872.00,829.48,16.18
56.663628,872.42,821.69,15.62
56.679255,870.15,813.46,17.12
56.694882,866.46,815.60,15.04
56.710509,864.01,805.92,15.58
56.726136,853.51,805.24,14.97
56.741763,852.25,794.19,15.79
56.757390,851.62,792.63,13.40
56.773017,847.55,788.71,11.35
56.788644,846.08,787.77,13.59
56.804271,839.60,789.92,12.84
56.819898,843.08,789.19,17.45
56.835525,850.08,780.74,17.33
56.851152,851.48,804.87,13.09
56.866780,860.68,805.32,12.24
56.882407,873.41,821.08,13.53
56.898034,877.21,832.48,15.93
56.913661,891.86,847.07,14.45
56.929288,902.73,861.21,17.94
56.944915,919.25,878.05,11.82
56.960542,925.64,894.68,14.57
56.976169,940.12,901.53,14.50
56.991796,937.99,902.30,18.17
57.007423,952.43,919.31,18.47
57.023050,956.41,912.56,14.05
57.038677,950.18,920.02,16.58
57.054304,951.41,918.90,17.92
57.069931,950.19,918.68,13.41
57.085558,943.19,908.63,16.52
57.101185,934.27,901.62,17.46
57.116812,924.22,891.52,13.52
57.132439,926.11,883.99,15.10
57.148066,907.38,871.94,11.85
57.163693,909.48,864.13,13.03
57.179320,897.78,858.62,10.87
57.194947,889.88,845.05,16.61
57.210574,884.53,839.10,16.43
57.226201,887.60,836.96,15.24
57.241828,880.59,833.64,17.91
57.257455,879.96,833.62,17.64
57.273082,878.97,833.29,17.43
57.288709,878.90,826.49,12.58
57.304337,874.43,815.83,14.01
57.319964,872.40,818.03,13.91
57.335591,864.27,813.38,18.44
57.351218,858.79,805.75,17.36
57.366845,851.95,800.26,15.68
57.382472,856.49,800.95,18.35
57.398099,847.83,792.34,18.14
57.413726,849.71,787.51,15.66
57.429353,847.75,790.48,16.35
57.444980,844.57,784.08,13.40
57.460607,852.69,786.85,13.90
57.476234,860.03,796.90,14.75
57.491861,856.93,804.41,17.50
57.507488,870.08,809.17,15.24
57.523115,879.33,825.08,15.89
57.538742,893.11,845.44,14.12
57.554369,903.93,854.16,15.50
57.569996,915.85,869.44,16.48
57.585623,928.65,882.21,11.87
57.601250,932.98,898.35,17.40
57.616877,939.31,908.79,12.96
57.632504,946.07,914.71,15.58
57.648131,947.53,915.64,12.12
57.663758,956.82,920.82,9.37
57.679385,954.23,919.12,17.68
57.695012,950.24,914.56,16.98
57.710639,946.24,914.60,16.06
57.726266,939.15,905.66,13.80
57.741893,935.15,893.29,19.13
57.757521,922.63,886.00,12.07
57.773148,915.85,875.93,16.62
57.788775,907.80,868.00,11.73
57.804402,902.83,862.62,16.55
57.820029,892.65,851.44,12.35
57.835656,889.89,850.66,15.09
57.851283,891.23,841.10,15.06
57.866910,884.90,835.09,15.62
57.882537,881.27,836.41,13.53
57.898164,884.71,832.22,15.29
57.913791,879.82,831.57,12.59
57.929418,874.35,818.17,16.92
57.945045,874.18,819.44,13.56
57.960672,865.49,807.58,16.14
57.976299,865.07,808.32,16.30
57.991926,854.41,802.84,14.48
58.007553,853.45,804.37,16.98
58.023180,854.43,791.34,16.37
58.038807,845.74,786.74,14.15
58.054434,843.66,789.93,16.88
58.070061,845.50,789.28,15.02
58.085688,849.07,793.45,16.34
58.101315,854.45,798.00,14.47
58.116942,858.67,799.75,15.44
58.132569,864.90,811.70,13.83
58.148196,878.84,820.90,15.82
58.163823,887.22,838.56,15.48
58.179450,896.52,856.13,13.00
58.195077,911.19,865.77,14.22
58.210705,923.82,880.94,12.55
58.226332,929.94,890.52,13.41
58.241959,938.01,899.34,11.61
58.257586,949.84,912.75,15.68
58.273213,954.88,918.80,13.29
58.288840,954.75,923.04,19.01
58.304467,953.33,922.58,17.54
58.320094,950.83,913.54,15.10
58.335721,943.93,910.43,14.75
58.351348,940.06,911.93,15.84
58.366975,937.72,897.61,11.58
58.382602,926.85,888.19,12.00
58.398229,922.65,875.29,13.51
58.413856,913.21,871.56,13.37
58.429483,904.56,866.72,12.61
58.445110,901.23,851.74,15.83
58.460737,892.02,850.66,15.35
58.476364,892.97,843.16,13.03
58.491991,895.94,838.79,14.07
58.507618,883.37,835.84,12.76
58.523245,886.95,833.53,12.81
58.538872,879.63,830.02,15.21
58.554499,876.15,824.11,16.00
58.570126,876.30,819.41,19.26
58.585753,869.03,821.49,14.35
58.601380,871.50,809.80,17.84
58.617007,862.12,802.67,14.95
58.632634,856.05,800.39,15.75
58.648261,858.51,797.30,15.64
58.663889,854.09,794.56,13.49
58.679516,848.80,788.09,15.66
58.695143,845.72,784.49,13.68
58.710770,847.02,783.94,12.12
58.726397,853.65,797.35,14.96
58.742024,856.69,806.27,10.16
58.757651,867.69,812.13,14.88
58.773278,874.59,815.54,16.61
58.788905,880.15,835.99,18.59
58.804532,893.31,849.54,11.76
58.820159,909.62,864.00,16.39
58.835786,923.42,879.40,11.98
58.851413,931.40,888.66,15.54
58.867040,938.56,903.34,12.40
58.882667,944.29,906.71,15.53
58.898294,948.74,918.40,17.55
58.913921,953.16,921.40,15.54
58.929548,957.94,919.65,14.00
58.945175,950.20,921.18,15.09
58.960802,953.11,917.03,13.43
58.976429,946.62,910.13,15.83
58.992056,942.07,902.32,17.03
59.007683,933.47,896.86,16.10
59.023310,924.18,882.64,15.85
59.038937,917.40,864.62,16.11
59.054564,913.08,867.10,13.85
59.070191,900.90,852.76,18.81
59.085818,899.61,852.69,12.18
59.101446,895.07,844.10,14.87
59.117073,888.37,843.95,15.50
59.132700,889.70,835.70,13.93
59.148327,891.53,831.48,14.47
59.163954,882.72,835.56,15.51
59.179581,875.45,828.08,13.66
59.195208,871.61,823.60,14.15
59.210835,872.36,813.66,15.72
59.226462,872.73,808.94,16.10
59.242089,864.49,814.21,13.35
59.257716,861.51,807.23,11.38
59.273343,859.36,803.18,12.43
59.288970,852.98,792.16,16.22
59.304597,851.19,786.06,16.39
59.320224,851.49,790.74,14.83
59.335851,848.63,786.39,11.85
59.351478,854.48,792.17,14.64
59.367105,853.42,795.12,13.60
59.382732,863.34,812.27,13.12
59.398359,872.68,819.90,14.59
59.413986,880.19,835.05,14.81
59.429613,896.29,848.43,15.78
59.445240,907.88,860.64,14.96
59.460867,921.05,878.79,10.75
59.476494,929.36,889.49,14.25
59.492121,936.09,901.70,14.36
59.507748,950.48,908.38,15.42
59.523375,958.22,923.81,19.51
59.539002,956.06,923.72,13.56
59.554630,960.16,918.85,12.71
59.570257,961.88,925.32,15.85
59.585884,950.54,918.93,15.82
59.601511,940.52,908.46,14.07
59.617138,941.23,905.12,13.15
59.632765,932.55,894.54,18.77
59.648392,929.35,880.85,16.01
59.664019,919.20,876.99,16.43
59.679646,908.30,864.99,15.96
59.695273,907.69,853.05,14.52
59.710900,901.04,854.77,14.55
59.726527,897.59,847.59,15.14
59.742154,893.20,838.52,15.98
59.757781,886.92,831.64,16.02
59.773408,890.22,836.15,18.53
59.789035,884.46,832.97,17.10
59.804662,879.10,830.97,15.99
59.820289,876.05,826.76,16.07
59.835916,875.82,823.97,14.36
59.851543,874.72,813.85,14.99
59.867170,868.91,811.29,12.51
59.882797,862.91,803.58,12.67
59.898424,864.36,802.60,16.58
59.914051,853.42,793.84,13.02
59.929678,854.92,791.84,12.49
59.945305,844.94,791.29,10.53
59.960932,851.19,792.19,15.29
59.976559,852.09,792.56,15.46
59.992186,856.64,798.44,12.42
60.007814,868.24,805.53,13.28
60.023441,875.07,816.81,15.28
60.039068,883.45,831.68,12.94
60.054695,896.75,840.96,12.73
60.070322,905.03,856.73,13.61
60.085949,919.00,874.75,15.16
60.101576,923.78,889.97,15.43
60.117203,937.80,899.56,13.69
60.132830,948.43,910.84,15.63
60.148457,950.67,920.58,15.98
60.164084,958.56,920.89,15.16
60.179711,958.22,929.04,14.69
60.195338,957.50,933.75,19.36
60.210965,957.53,917.91,14.57
60.226592,953.70,906.79,12.28
60.242219,947.56,904.39,15.87
60.257846,935.42,896.94,14.71
60.273473,928.70,892.23,13.54
60.289100,915.01,879.66,11.89
60.304727,917.45,866.75,14.16
60.320354,906.88,864.57,15.66
60.335981,901.80,856.69,13.38
60.351608,895.69,848.75,13.85
60.367235,895.27,847.43,13.40
60.382862,882.88,838.94,15.65
60.398489,888.11,834.33,15.03
60.414116,885.25,830.40,14.79
60.429743,884.62,827.06,12.86
60.445370,878.43,825.14,11.60
60.460998,878.46,822.00,12.57
60.476625,871.22,820.59,18.60
60.492252,873.53,814.60,16.36
60.507879,866.22,810.57,16.79
60.523506,857.76,804.82,14.11
60.539133,856.87,795.50,13.93
60.554760,854.20,791.37,18.77
60.570387,851.43,793.56,14.44
60.586014,849.86,795.71,14.83
60.601641,857.87,797.23,15.02
60.617268,865.98,795.08,16.47
60.632895,870.06,807.33,15.31
60.648522,876.65,814.98,13.95
60.664149,881.78,830.67,14.25
60.679776,886.19,849.33,12.70
60.695403,904.34,858.08,16.43
60.711030,917.34,872.89,9.79
60.726657,926.01,887.24,15.01
60.742284,937.49,903.06,14.36
60.757911,944.12,915.47,14.09
60.773538,953.70,916.35,16.00
