timestamp,ppg_red,ppg_infrared,ppg_ambient
0.000000,903.99,850.94,13.71
0.015627,911.43,866.07,16.28
0.031254,921.52,872.48,14.13
0.046881,927.67,881.29,13.27
0.062508,932.44,894.42,16.17
0.078135,942.37,903.02,11.60
0.093762,948.16,913.30,15.98
0.109389,955.85,914.20,16.05
0.125016,958.60,919.42,12.99
0.140643,962.04,922.85,13.71
0.156270,957.58,927.86,13.06
0.171897,968.98,923.69,14.75
0.187524,960.76,928.39,19.31
0.203151,959.79,925.70,13.71
0.218778,954.32,915.09,15.06
0.234406,947.79,918.42,19.10
0.250033,950.59,910.70,13.90
0.265660,940.33,900.68,11.98
0.281287,940.07,896.44,14.28
0.296914,931.43,885.17,17.59
0.312541,924.12,879.96,12.98
0.328168,916.00,870.04,15.15
0.343795,914.08,864.53,14.23
0.359422,908.95,858.70,15.46
0.375049,904.85,858.83,14.55
0.390676,905.57,847.89,14.94
0.406303,896.69,848.21,12.94
0.421930,888.17,842.45,14.45
0.437557,888.40,836.08,13.05
0.453184,891.26,842.95,13.33
0.468811,884.07,834.15,14.01
0.484438,887.04,841.55,17.29
0.500065,883.81,830.62,14.58
0.515692,880.06,833.34,15.34
0.531319,878.36,828.10,12.67
0.546946,875.98,825.41,17.35
0.562573,877.50,821.02,13.20
0.578200,868.51,812.43,14.80
0.593827,867.93,814.28,9.49
0.609454,862.75,808.12,13.16
0.625081,856.89,804.59,15.28
0.640708,856.39,806.80,13.15
0.656335,855.26,800.74,17.52
0.671962,850.75,794.75,12.71
0.687590,855.98,791.39,13.34
0.703217,848.20,789.73,13.84
0.718844,846.15,791.86,14.65
0.734471,846.54,783.06,16.48
0.750098,855.33,789.41,18.26
0.765725,859.52,800.21,14.09
0.781352,851.92,802.44,16.46
0.796979,864.92,807.90,16.23
0.812606,863.00,810.76,14.50
0.828233,873.13,825.54,12.83
0.843860,886.00,829.78,14.42
0.859487,891.47,836.17,11.53
0.875114,904.01,854.35,9.75
0.890741,903.42,857.72,16.85
0.906368,915.39,872.58,15.55
0.921995,924.88,880.32,15.53
0.937622,934.23,890.55,19.76
0.953249,940.59,898.64,16.22
0.968876,945.52,910.11,14.08
0.984503,951.98,912.80,13.58
1.000130,958.39,920.84,17.18
1.015757,968.13,921.49,19.62
1.031384,960.98,923.47,15.23
1.047011,964.54,928.35,13.79
1.062638,965.88,928.33,17.70
1.078265,965.54,920.54,13.02
1.093892,961.95,923.53,15.00
1.109519,958.71,918.07,15.10
1.125147,953.40,918.17,15.68
1.140774,947.31,904.32,14.53
1.156401,933.65,899.74,15.94
1.172028,935.00,895.32,16.98
1.187655,929.16,890.11,14.78
1.203282,930.34,878.33,16.43
1.218909,920.07,878.78,16.64
1.234536,918.79,871.51,9.73
1.250163,904.67,864.84,13.50
1.265790,905.58,856.79,11.07
1.281417,896.56,852.55,16.61
1.297044,894.57,849.43,10.64
1.312671,894.56,848.33,14.53
1.328298,891.08,843.66,15.88
1.343925,887.32,840.52,13.99
1.359552,889.98,839.45,13.30
1.375179,884.42,838.77,14.80
1.390806,879.25,835.47,16.24
1.406433,883.55,829.03,18.13
1.422060,879.51,832.43,16.24
1.437687,884.22,826.18,15.51
1.453314,876.70,819.38,14.42
1.468941,869.24,815.49,13.60
1.484568,871.39,817.83,15.49
1.500195,867.97,807.45,13.83
1.515822,863.00,811.20,14.01
1.531449,861.64,807.66,17.13
1.547076,856.44,798.00,19.94
1.562703,857.21,801.15,16.36
1.578331,854.22,796.94,12.21
1.593958,851.69,794.67,16.22
1.609585,850.22,792.01,15.61
1.625212,853.13,792.80,12.51
1.640839,860.01,794.62,16.22
1.656466,854.40,797.04,16.81
1.672093,858.30,806.78,13.97
1.687720,869.63,808.66,14.70
1.703347,870.63,817.01,10.73
1.718974,874.11,826.57,14.45
1.734601,883.12,829.40,16.22
1.750228,892.71,842.56,16.80
1.765855,903.15,853.77,12.24
1.781482,916.96,866.13,15.78
1.797109,916.36,874.00,14.41
1.812736,926.77,884.96,12.66
1.828363,936.84,892.16,13.02
1.843990,942.28,900.36,12.17
1.859617,950.82,912.43,13.90
1.875244,958.92,922.37,15.87
1.890871,960.24,924.77,15.33
1.906498,967.83,929.06,17.54
1.922125,965.13,927.95,14.48
1.937752,967.54,932.69,11.65
1.953379,970.52,928.40,13.29
1.969006,966.78,928.02,15.59
1.984633,957.39,928.85,15.82
2.000260,957.80,916.58,11.75
2.015887,951.35,911.51,15.07
2.031515,941.64,906.18,14.03
2.047142,942.05,896.92,15.32
2.062769,936.57,890.53,13.72
2.078396,929.62,885.14,15.68
2.094023,923.53,881.27,16.92
2.109650,924.54,876.00,15.43
2.125277,914.20,861.30,13.01
2.140904,907.73,863.26,11.91
2.156531,904.25,858.64,14.59
2.172158,900.46,845.89,16.57
2.187785,897.58,841.73,12.81
2.203412,898.06,844.41,15.64
2.219039,889.34,842.92,15.81
2.234666,887.51,840.56,16.01
2.250293,891.35,835.74,15.45
2.265920,884.22,831.72,15.57
2.281547,882.32,832.45,12.71
2.297174,877.40,826.70,15.74
2.312801,885.62,830.62,15.41
2.328428,878.07,821.46,12.95
2.344055,875.97,824.96,10.71
2.359682,877.39,817.63,11.37
2.375309,871.19,815.44,12.76
2.390936,866.36,811.42,17.46
2.406563,863.63,810.78,16.40
2.422190,861.33,804.71,14.78
2.437817,861.24,803.56,17.20
2.453444,859.92,792.85,14.29
2.469071,854.46,799.25,13.59
2.484699,857.78,798.36,17.12
2.500326,854.98,799.53,12.26
2.515953,858.07,801.03,14.21
2.531580,858.65,799.55,16.44
2.547207,858.35,801.06,20.32
2.562834,866.58,811.04,13.59
2.578461,866.64,816.66,18.42
2.594088,881.20,823.76,14.30
2.609715,881.39,828.89,16.25
2.625342,891.45,841.79,14.56
2.640969,902.71,845.21,15.33
2.656596,913.96,861.20,12.54
2.672223,917.31,868.40,14.78
2.687850,924.46,879.99,15.05
2.703477,932.73,881.89,12.64
2.719104,933.15,900.90,14.70
2.734731,955.36,907.93,13.89
2.750358,956.42,918.57,18.21
2.765985,961.21,928.41,15.30
2.781612,963.91,924.61,17.15
2.797239,971.60,927.14,17.34
2.812866,970.92,927.70,14.95
2.828493,966.32,930.32,17.15
2.844120,965.36,927.35,14.96
2.859747,965.72,915.50,13.95
2.875374,957.56,921.20,17.41
2.891001,958.71,914.46,12.16
2.906628,951.39,909.96,12.87
2.922256,940.51,904.54,15.37
2.937883,940.79,904.86,15.46
2.953510,938.46,894.15,17.43
2.969137,929.53,879.46,17.53
2.984764,921.24,881.47,17.60
3.000391,918.24,870.72,14.02
3.016018,908.55,863.65,15.63
3.031645,907.32,859.21,16.49
3.047272,901.67,849.98,13.56
3.062899,903.56,852.15,15.35
3.078526,900.99,845.24,13.12
3.094153,898.05,845.76,15.01
3.109780,899.37,842.89,17.65
3.125407,891.36,837.21,15.49
3.141034,893.69,842.07,17.83
3.156661,887.64,840.87,21.19
3.172288,882.57,834.89,15.83
3.187915,879.98,831.22,15.29
3.203542,883.00,829.97,21.08
3.219169,877.19,824.32,17.14
3.234796,877.52,823.44,11.44
3.250423,872.96,809.40,14.61
3.266050,868.67,814.23,17.98
3.281677,864.24,811.13,16.61
3.297304,863.80,807.67,12.73
3.312931,855.65,801.72,15.54
3.328558,862.58,801.42,17.14
3.344185,858.35,802.53,15.56
3.359812,857.77,799.33,13.39
3.375440,854.75,794.96,16.88
3.391067,854.60,795.00,10.39
3.406694,856.75,797.47,16.26
3.422321,858.25,799.85,14.12
3.437948,863.41,805.82,10.29
3.453575,867.81,808.23,12.14
3.469202,875.79,823.78,16.03
3.484829,877.40,827.02,14.73
3.500456,887.76,837.13,14.93
3.516083,900.98,845.63,12.86
3.531710,906.51,855.78,14.86
3.547337,909.90,861.47,11.77
3.562964,917.47,875.90,13.51
3.578591,932.55,891.86,13.64
3.594218,939.82,895.04,16.21
3.609845,943.09,902.23,12.59
3.625472,953.50,908.10,15.21
3.641099,958.87,918.14,16.58
3.656726,965.41,927.98,15.32
3.672353,962.10,923.06,15.98
3.687980,969.56,928.95,14.03
3.703607,970.66,933.12,16.70
3.719234,971.53,928.61,13.23
3.734861,968.79,926.88,15.08
3.750488,967.85,918.62,17.05
3.766115,955.82,921.75,15.24
3.781742,954.21,913.05,12.16
3.797369,950.15,907.22,18.65
3.812996,944.60,905.21,19.71
3.828624,935.15,898.14,14.27
3.844251,933.53,885.41,17.62
3.859878,927.62,879.49,13.17
3.875505,915.81,869.08,11.01
3.891132,911.64,864.65,18.04
3.906759,912.19,856.64,15.72
3.922386,914.38,856.94,17.97
3.938013,903.95,851.59,12.79
3.953640,898.02,849.62,11.63
3.969267,897.67,849.99,14.29
3.984894,898.22,845.44,9.97
4.000521,894.26,846.06,14.85
4.016148,893.94,836.52,17.90
4.031775,890.77,835.37,17.00
4.047402,890.33,837.43,15.79
4.063029,886.57,832.50,19.48
4.078656,882.26,828.69,14.11
4.094283,880.13,825.32,15.37
4.109910,879.11,826.46,16.00
4.125537,872.79,819.79,14.02
4.141164,876.37,813.28,17.63
4.156791,872.50,814.80,12.24
4.172418,870.20,803.12,13.06
4.188045,862.24,805.81,14.71
4.203672,859.11,801.66,12.92
4.219299,855.30,804.06,13.79
4.234926,858.59,795.33,13.65
4.250553,854.47,791.89,17.58
4.266180,859.17,800.29,14.48
4.281808,852.41,797.07,17.53
4.297435,858.18,799.15,14.46
4.313062,861.86,806.98,13.62
4.328689,858.50,813.72,13.30
4.344316,869.68,819.63,16.60
4.359943,880.57,820.83,19.34
4.375570,891.43,831.15,11.29
4.391197,892.01,845.26,14.95
4.406824,901.24,854.14,17.82
4.422451,915.49,864.75,14.90
4.438078,914.46,872.92,16.03
4.453705,928.11,881.85,13.68
4.469332,938.23,892.74,20.48
4.484959,950.90,907.78,16.72
4.500586,954.66,910.58,14.27
4.516213,962.00,916.02,16.19
4.531840,964.02,928.94,13.04
4.547467,972.13,923.21,14.06
4.563094,972.03,931.46,12.78
4.578721,972.35,931.63,15.29
4.594348,973.75,929.68,14.80
4.609975,970.18,928.19,13.51
4.625602,963.97,929.13,21.21
4.641229,959.92,924.24,20.47
4.656856,955.87,916.13,14.64
4.672483,956.90,909.17,11.94
4.688110,950.67,900.96,16.07
4.703737,938.78,892.02,12.02
4.719365,940.21,890.83,15.61
4.734992,931.99,883.30,13.91
4.750619,924.64,878.03,16.59
4.766246,919.18,869.04,18.10
4.781873,912.10,866.11,15.03
4.797500,910.45,856.72,14.73
4.813127,912.64,852.19,15.44
4.828754,900.30,854.97,12.09
4.844381,901.67,853.51,18.09
4.860008,901.70,845.38,16.43
4.875635,900.28,847.58,19.24
4.891262,890.75,844.20,11.91
4.906889,891.96,843.67,15.44
4.922516,891.69,832.76,16.97
4.938143,883.82,830.65,16.52
4.953770,891.39,834.55,12.19
4.969397,879.50,822.28,16.26
4.985024,877.93,817.48,16.30
5.000651,873.06,823.03,16.38
5.016278,871.03,811.64,15.33
5.031905,872.73,812.29,16.61
5.047532,870.25,816.71,15.85
5.063159,863.01,804.98,16.24
5.078786,857.90,798.24,18.15
5.094413,860.81,799.63,17.45
5.110040,857.95,799.92,11.74
5.125667,851.72,794.05,14.39
5.141294,859.99,793.78,15.85
5.156921,855.77,800.56,14.91
5.172549,856.01,799.41,16.67
5.188176,861.28,804.51,8.95
5.203803,872.79,808.78,16.16
5.219430,874.08,814.39,15.16
5.235057,875.79,819.56,15.42
5.250684,883.47,827.68,17.60
5.266311,891.53,843.34,14.25
5.281938,895.97,848.53,13.04
5.297565,915.27,863.52,11.97
5.313192,921.40,879.90,15.61
5.328819,921.73,878.31,14.58
5.344446,939.00,894.30,18.28
5.360073,942.39,897.85,16.75
5.375700,957.08,902.78,13.42
5.391327,960.70,916.52,14.40
5.406954,960.34,924.24,10.94
5.422581,967.38,924.45,15.87
5.438208,971.73,932.35,13.89
5.453835,971.35,937.68,15.32
5.469462,970.14,936.28,13.34
5.485089,968.29,928.71,11.45
5.500716,965.12,927.83,17.24
5.516343,964.37,922.67,19.36
5.531970,957.19,916.56,14.95
5.547597,951.01,908.29,12.33
5.563224,949.88,902.35,15.58
5.578851,937.94,900.84,12.59
5.594478,943.20,889.96,13.54
5.610105,924.57,887.11,13.79
5.625733,927.10,880.54,14.78
5.641360,922.22,872.79,15.69
5.656987,918.30,867.50,17.11
5.672614,911.42,860.24,14.97
5.688241,904.94,858.70,14.09
5.703868,903.77,854.35,15.21
5.719495,903.96,850.75,17.51
5.735122,892.29,847.42,16.95
5.750749,900.35,845.82,15.92
5.766376,894.99,838.85,11.55
5.782003,893.03,839.76,16.32
5.797630,895.07,836.46,14.11
5.813257,887.44,829.93,15.18
5.828884,889.15,835.29,12.64
5.844511,885.95,831.78,14.37
5.860138,877.37,822.14,10.64
5.875765,880.89,820.13,17.61
5.891392,881.38,820.21,16.06
5.907019,872.83,812.71,14.85
5.922646,867.28,811.57,12.76
5.938273,867.62,807.57,17.03
5.953900,860.56,802.96,15.59
5.969527,857.05,802.73,15.34
5.985154,866.26,796.30,14.11
6.000781,858.95,794.97,17.02
6.016408,855.43,788.77,15.52
6.032035,859.08,799.00,16.58
6.047662,858.46,799.32,13.62
6.063289,859.79,809.01,12.39
6.078917,868.29,806.26,14.95
6.094544,871.79,813.97,16.98
6.110171,878.11,820.23,13.78
6.125798,888.07,834.85,15.66
6.141425,889.26,840.10,17.92
6.157052,903.92,852.73,17.32
6.172679,904.50,847.59,14.23
6.188306,920.62,871.09,15.03
6.203933,930.32,879.45,12.24
6.219560,942.98,890.47,9.28
6.235187,942.23,897.12,12.41
6.250814,950.62,911.04,10.92
6.266441,958.79,910.42,14.47
6.282068,966.15,920.01,15.10
6.297695,965.00,928.46,13.28
6.313322,970.96,923.30,16.52
6.328949,970.83,927.65,17.47
6.344576,974.29,927.52,15.63
6.360203,970.58,928.49,14.30
6.375830,970.13,926.01,17.89
6.391457,967.04,921.38,16.37
6.407084,963.72,920.07,16.36
6.422711,957.26,913.50,15.68
6.438338,954.60,906.59,15.29
6.453965,952.00,898.91,16.03
6.469592,939.76,894.50,13.73
6.485219,933.44,885.74,13.03
6.500846,927.09,880.54,13.37
6.516473,922.55,876.19,16.18
6.532101,921.37,871.54,12.87
6.547728,915.32,865.99,16.79
6.563355,911.05,860.83,10.30
6.578982,908.09,853.13,14.54
6.594609,905.44,852.52,15.13
6.610236,899.50,851.31,13.39
6.625863,896.81,845.05,13.05
6.641490,899.93,850.10,15.71
6.657117,894.46,843.72,18.19
6.672744,888.41,838.29,15.51
6.688371,892.36,836.83,16.21
6.703998,886.99,834.57,12.34
6.719625,887.06,830.66,16.00
6.735252,885.25,825.73,17.85
6.750879,880.93,824.93,16.05
6.766506,884.42,820.74,13.81
6.782133,872.68,814.11,12.64
6.797760,863.96,813.94,13.97
6.813387,868.63,806.06,14.98
6.829014,864.03,801.49,14.49
6.844641,856.76,799.91,13.41
6.860268,855.74,800.41,11.09
6.875895,856.62,801.95,15.88
6.891522,857.56,793.62,16.75
6.907149,854.61,800.65,15.05
6.922776,859.69,804.01,18.86
6.938403,864.89,797.42,12.31
6.954030,866.42,802.04,14.61
6.969658,870.79,806.83,16.51
6.985285,867.11,814.78,15.30
7.000912,883.33,823.14,15.77
7.016539,884.65,835.47,12.61
7.032166,900.94,845.50,15.58
7.047793,906.99,852.11,10.99
7.063420,914.71,862.90,16.99
7.079047,923.36,870.05,17.20
7.094674,936.07,879.04,15.11
7.110301,942.47,891.32,15.56
7.125928,948.26,901.02,14.64
7.141555,956.25,911.56,18.44
7.157182,963.96,921.51,13.77
7.172809,970.78,927.52,15.59
7.188436,968.08,930.85,15.95
7.204063,965.99,930.49,15.54
7.219690,972.23,929.03,16.08
7.235317,965.24,928.49,15.70
7.250944,971.24,925.61,12.92
7.266571,963.94,920.18,15.17
7.282198,967.90,923.99,17.26
7.297825,960.65,917.35,11.20
7.313452,958.13,909.56,17.72
7.329079,948.94,903.80,17.52
7.344706,950.80,896.51,12.96
7.360333,937.05,895.48,14.46
7.375960,926.94,880.68,14.62
7.391587,925.85,877.35,16.98
7.407214,926.31,871.55,18.34
7.422842,914.91,866.32,17.15
7.438469,913.71,862.30,14.45
7.454096,907.40,851.97,11.48
7.469723,906.19,854.56,13.96
7.485350,902.39,846.75,15.94
7.500977,900.57,846.63,17.46
7.516604,888.21,841.89,12.02
7.532231,893.42,838.37,13.08
7.547858,897.37,837.15,13.84
7.563485,884.16,834.76,13.96
7.579112,894.81,832.32,18.61
7.594739,889.64,834.34,14.38
7.610366,886.27,830.62,13.43
7.625993,881.99,831.40,13.86
7.641620,882.64,818.10,15.87
7.657247,875.51,817.73,16.91
7.672874,876.72,812.16,14.57
7.688501,867.97,806.82,15.71
7.704128,867.33,802.86,13.52
7.719755,862.88,798.50,16.64
7.735382,863.96,798.87,15.67
7.751009,863.42,793.69,18.97
7.766636,859.12,790.33,13.75
7.782263,856.76,796.44,15.45
7.797890,860.13,797.97,13.73
7.813517,863.07,797.68,13.80
7.829144,865.41,802.79,17.33
7.844771,864.35,805.86,16.47
7.860398,872.16,811.57,17.08
7.876026,877.71,819.05,13.65
7.891653,883.56,827.59,13.66
7.907280,894.99,838.05,15.48
7.922907,900.74,850.34,14.35
7.938534,907.63,857.04,15.30
7.954161,916.10,867.83,17.02
7.969788,925.71,874.52,15.39
7.985415,939.28,888.19,16.13
8.001042,950.19,898.88,17.48
8.016669,952.02,907.42,13.72
8.032296,954.22,908.31,11.58
8.047923,961.74,925.22,10.53
8.063550,963.22,920.40,18.36
8.079177,967.53,930.10,13.97
8.094804,974.61,928.01,15.06
8.110431,974.17,927.11,17.36
8.126058,976.28,934.21,15.62
8.141685,969.98,927.75,16.77
8.157312,970.40,925.71,12.94
8.172939,961.24,921.74,13.44
8.188566,959.22,911.53,12.31
8.204193,953.47,903.00,18.30
8.219820,950.03,897.54,15.50
8.235447,940.21,892.19,20.16
8.251074,932.21,893.24,14.86
8.266701,930.80,880.04,15.91
8.282328,923.53,877.87,15.40
8.297955,920.38,862.29,17.08
8.313582,912.39,858.48,18.33
8.329210,915.03,861.17,16.05
8.344837,907.83,850.44,19.94
8.360464,899.66,850.66,14.36
8.376091,898.18,847.79,12.78
8.391718,895.64,843.15,10.88
8.407345,893.47,840.57,17.14
8.422972,894.55,839.02,14.55
8.438599,889.59,842.70,11.75
8.454226,892.71,833.00,14.95
8.469853,892.72,828.22,18.06
8.485480,881.22,830.98,17.01
8.501107,881.29,826.33,12.93
8.516734,877.96,825.28,12.03
8.532361,872.23,826.77,13.34
8.547988,878.03,807.95,13.16
8.563615,873.18,811.07,16.32
8.579242,863.37,804.14,11.91
8.594869,869.20,799.68,13.13
8.610496,862.98,799.41,12.16
8.626123,857.84,794.27,15.36
8.641750,852.18,795.69,13.98
8.657377,858.72,796.38,16.81
8.673004,855.85,796.71,13.98
8.688631,857.34,799.08,14.81
8.704258,860.19,804.33,15.56
8.719885,862.02,801.73,11.90
8.735512,874.23,809.82,15.56
8.751139,870.83,815.39,15.72
8.766767,878.85,824.97,12.51
8.782394,888.54,834.50,17.64
8.798021,898.80,845.15,13.16
8.813648,900.40,849.73,13.11
8.829275,916.29,863.68,14.49
8.844902,921.91,874.27,16.91
8.860529,929.16,887.47,10.06
8.876156,941.10,889.65,14.94
8.891783,948.98,906.44,12.07
8.907410,954.09,909.71,12.66
8.923037,960.30,915.00,15.14
8.938664,966.46,924.81,10.58
8.954291,968.33,927.93,13.76
8.969918,976.61,928.48,12.34
8.985545,974.25,925.81,14.25
9.001172,971.93,931.20,15.98
9.016799,975.79,929.82,14.96
9.032426,966.60,927.16,17.11
9.048053,963.78,921.10,16.16
9.063680,963.41,913.13,15.61
9.079307,955.26,911.11,14.16
9.094934,950.63,903.07,15.66
9.110561,943.54,895.61,13.26
9.126188,933.85,887.11,15.59
9.141815,924.01,880.33,11.65
9.157442,920.60,875.19,15.35
9.173069,920.35,869.48,16.34
9.188696,912.52,866.88,17.25
9.204323,911.27,858.12,17.95
9.219951,906.43,852.16,13.34
9.235578,909.12,851.77,12.64
9.251205,903.02,847.26,16.74
9.266832,892.27,846.23,11.47
9.282459,895.46,842.18,17.48
9.298086,892.75,836.98,15.72
9.313713,893.23,839.30,15.47
9.329340,890.07,830.76,14.75
9.344967,889.36,835.02,12.94
9.360594,882.69,828.07,16.34
9.376221,882.79,831.37,16.47
9.391848,882.91,820.43,15.42
9.407475,876.55,822.65,16.13
9.423102,872.83,817.58,10.68
9.438729,867.91,813.22,16.16
9.454356,867.94,807.69,14.81
9.469983,867.37,799.47,17.70
9.485610,865.22,798.49,16.51
9.501237,859.66,786.63,16.80
9.516864,859.61,789.45,14.06
9.532491,855.05,797.57,15.91
9.548118,857.83,795.85,13.35
9.563745,860.90,798.36,17.79
9.579372,858.42,801.40,12.13
9.594999,861.73,803.71,14.48
9.610626,869.42,805.01,14.95
9.626253,872.61,811.43,13.84
9.641880,877.52,821.05,12.65
9.657507,883.80,829.66,13.66
9.673135,893.31,837.87,16.15
9.688762,903.25,847.64,11.46
9.704389,909.26,858.47,12.94
9.720016,923.53,871.50,14.46
9.735643,922.66,878.67,16.69
9.751270,945.05,893.13,12.71
9.766897,947.63,899.29,19.61
9.782524,949.29,910.09,17.96
9.798151,952.22,919.38,17.00
9.813778,961.39,916.16,16.62
9.829405,968.05,928.21,17.55
9.845032,971.97,928.91,12.75
9.860659,974.85,924.94,13.16
9.876286,972.41,925.66,12.82
9.891913,969.48,924.40,14.41
9.907540,965.63,930.95,15.82
9.923167,969.75,923.16,13.08
9.938794,960.88,917.85,13.77
9.954421,959.66,908.43,19.01
9.970048,949.90,900.69,14.38
9.985675,942.71,897.05,12.55
10.001302,942.39,885.79,17.01
10.016929,934.70,886.85,16.20
10.032556,926.36,875.66,13.47
10.048183,921.41,867.62,12.69
10.063810,917.04,864.17,15.26
10.079437,910.70,857.90,10.80
10.095064,906.37,855.18,12.65
10.110691,903.52,847.88,17.31
10.126319,900.63,847.37,14.89
10.141946,899.50,846.33,18.99
10.157573,893.49,836.71,14.46
10.173200,896.55,840.21,14.06
10.188827,889.43,835.36,16.17
10.204454,892.87,834.05,13.21
10.220081,886.14,828.82,14.46
10.235708,892.35,835.69,17.20
10.251335,884.59,823.50,15.11
10.266962,885.05,821.44,18.71
10.282589,878.04,816.58,15.02
10.298216,878.38,816.63,18.91
10.313843,869.39,814.29,18.04
10.329470,869.37,811.06,15.71
10.345097,869.96,810.47,15.28
10.360724,861.37,800.66,13.66
10.376351,859.44,796.48,12.09
10.391978,856.10,793.91,7.88
10.407605,858.86,792.74,21.42
10.423232,856.86,790.74,17.31
10.438859,854.75,794.41,13.51
10.454486,858.90,796.26,16.43
10.470113,858.59,801.65,16.19
10.485740,865.03,805.07,14.63
10.501367,867.60,810.57,17.42
10.516994,878.28,820.39,15.28
10.532621,882.67,825.26,18.68
10.548248,891.05,831.76,14.34
10.563876,902.86,841.91,16.11
10.579503,908.52,852.34,16.34
10.595130,915.93,856.63,15.87
10.610757,924.30,878.03,15.63
10.626384,930.74,882.70,16.65
10.642011,948.21,896.64,13.13
10.657638,948.92,900.35,16.68
10.673265,957.56,906.51,14.69
10.688892,959.23,920.56,18.81
10.704519,969.87,921.97,12.57
10.720146,972.81,925.59,18.28
10.735773,967.09,929.01,14.29
10.751400,971.96,929.71,15.18
10.767027,967.37,926.48,16.81
10.782654,967.45,924.96,18.60
10.798281,963.49,922.43,16.70
10.813908,954.80,913.61,14.24
10.829535,955.12,908.24,15.36
10.845162,946.95,905.08,13.30
10.860789,946.03,901.11,13.52
10.876416,940.71,887.15,16.67
10.892043,928.79,884.31,12.99
10.907670,923.29,873.08,12.24
10.923297,922.10,873.82,17.36
10.938924,913.23,868.24,12.59
10.954551,914.43,858.10,13.55
10.970178,908.96,850.97,14.21
10.985805,907.10,854.58,16.31
11.001432,900.63,851.89,12.79
11.017060,892.85,845.51,13.90
11.032687,893.17,837.52,16.89
11.048314,882.41,832.78,11.81
11.063941,891.33,840.88,11.50
11.079568,890.76,832.44,12.28
11.095195,889.09,824.86,15.22
11.110822,889.33,831.68,16.19
11.126449,884.37,824.30,15.58
11.142076,878.19,823.09,19.63
11.157703,877.68,815.46,14.62
11.173330,871.38,813.22,16.74
11.188957,868.53,810.57,16.06
11.204584,871.53,802.59,13.37
11.220211,867.35,808.91,17.85
11.235838,863.41,804.99,15.16
11.251465,858.29,803.87,18.53
11.267092,856.18,794.44,15.04
11.282719,854.57,791.98,13.27
11.298346,853.56,789.47,15.18
11.313973,857.94,791.35,14.47
11.329600,856.90,792.67,16.17
11.345227,856.19,792.11,17.65
11.360854,861.58,798.56,12.86
11.376481,869.66,809.23,15.03
11.392108,871.14,817.73,14.59
11.407735,875.85,822.20,14.24
11.423362,888.32,829.62,14.12
11.438989,894.75,834.60,14.88
11.454616,905.44,848.99,18.73
11.470244,912.70,857.48,16.39
11.485871,921.71,868.27,14.13
11.501498,925.00,882.18,15.73
11.517125,940.61,889.51,15.58
11.532752,949.58,897.42,12.98
11.548379,961.28,901.87,17.05
11.564006,952.77,913.21,17.29
11.579633,961.67,916.52,13.65
11.595260,963.24,930.21,14.99
11.610887,965.81,922.53,18.09
11.626514,969.80,928.77,16.07
11.642141,966.00,926.22,13.43
11.657768,966.11,923.45,12.68
11.673395,962.70,921.56,10.95
11.689022,963.03,915.67,13.46
11.704649,955.37,916.86,11.90
11.720276,949.81,903.47,17.44
11.735903,949.69,904.28,15.36
11.751530,938.25,888.06,18.74
11.767157,931.89,886.49,15.90
11.782784,922.41,882.99,17.57
11.798411,923.19,869.33,16.49
11.814038,920.01,864.64,14.93
11.829665,913.94,861.35,16.97
11.845292,905.37,851.18,14.75
11.860919,906.64,850.49,15.65
11.876546,900.25,843.88,15.23
11.892173,902.29,845.81,14.08
11.907800,895.46,837.60,12.10
11.923428,898.36,834.58,15.00
11.939055,886.56,835.01,14.96
11.954682,891.29,840.90,15.47
11.970309,887.28,835.52,14.32
11.985936,887.35,829.28,14.94
12.001563,883.13,826.76,11.81
12.017190,882.75,827.13,13.13
12.032817,878.00,823.69,14.68
12.048444,869.70,813.42,15.74
12.064071,874.68,813.44,16.04
12.079698,869.30,811.75,15.14
12.095325,867.01,801.62,16.30
12.110952,861.79,800.35,11.78
12.126579,863.55,792.96,11.85
12.142206,856.10,795.62,15.36
12.157833,855.76,792.08,14.10
12.173460,855.50,792.33,16.60
12.189087,855.78,792.29,13.37
12.204714,855.85,795.91,13.73
12.220341,860.51,794.01,13.72
12.235968,853.31,798.02,16.18
12.251595,866.01,809.49,16.20
12.267222,867.00,808.62,15.68
12.282849,875.55,814.41,16.88
12.298476,881.41,825.83,15.16
12.314103,890.75,839.86,16.37
12.329730,896.29,846.86,13.99
12.345357,906.77,853.98,9.87
12.360985,914.33,868.79,14.87
12.376612,922.66,876.01,15.14
12.392239,931.60,887.18,14.69
12.407866,945.92,888.16,18.83
12.423493,945.64,904.64,13.89
12.439120,953.67,908.49,16.43
12.454747,956.51,914.10,12.42
12.470374,964.90,923.28,15.33
12.486001,968.57,926.61,14.11
12.501628,967.90,925.37,13.27
12.517255,968.04,925.07,14.31
12.532882,965.12,929.48,16.32
12.548509,964.42,923.58,13.82
12.564136,958.01,917.40,15.71
12.579763,954.49,912.63,14.21
12.595390,955.02,907.57,12.68
12.611017,945.17,898.47,16.01
12.626644,938.62,892.52,13.78
12.642271,935.87,884.11,13.55
12.657898,928.10,874.11,11.95
12.673525,919.67,867.20,15.48
12.689152,914.49,860.55,15.15
12.704779,912.34,863.00,18.29
12.720406,912.32,854.34,15.17
12.736033,904.21,846.21,16.65
12.751660,898.17,848.66,11.01
12.767287,894.43,839.40,15.71
12.782914,895.13,835.75,13.38
12.798541,894.79,841.23,13.83
12.814169,895.29,838.70,12.39
12.829796,893.06,831.48,14.35
12.845423,883.87,827.73,14.47
12.861050,887.22,825.49,12.71
12.876677,877.11,826.42,15.61
12.892304,880.40,826.44,14.99
12.907931,881.14,812.85,17.49
12.923558,872.93,814.23,18.08
12.939185,867.88,807.09,14.31
12.954812,869.53,806.37,14.94
12.970439,864.47,809.94,15.36
12.986066,861.18,802.66,9.37
13.001693,860.65,799.94,16.40
13.017320,855.16,801.00,13.14
13.032947,850.92,789.08,13.54
13.048574,859.06,791.17,16.36
13.064201,856.25,783.98,14.52
13.079828,855.11,792.82,14.96
13.095455,856.46,789.65,12.42
13.111082,855.42,795.14,11.08
13.126709,857.44,803.52,20.02
13.142336,863.05,810.85,15.24
13.157963,876.04,821.28,14.82
13.173590,874.68,820.51,13.32
13.189217,888.75,825.01,15.72
13.204844,894.96,838.08,13.29
13.220471,911.33,850.36,15.29
13.236098,912.77,857.08,13.31
13.251725,921.25,867.18,13.25
13.267353,934.06,879.94,17.98
13.282980,933.24,891.84,13.01
13.298607,941.67,895.97,17.30
13.314234,946.49,905.84,15.40
13.329861,955.32,913.90,16.43
13.345488,966.63,918.17,14.59
13.361115,965.88,919.65,15.52
13.376742,968.94,922.68,18.28
13.392369,961.39,924.23,14.93
13.407996,965.61,919.25,14.35
13.423623,961.71,919.62,12.59
13.439250,963.00,914.63,15.99
13.454877,954.84,910.28,16.98
13.470504,957.72,906.85,15.75
13.486131,947.50,896.07,21.56
13.501758,937.85,888.85,13.92
13.517385,935.96,885.93,16.04
13.533012,927.72,880.23,17.49
13.548639,918.26,864.65,12.93
13.564266,918.82,870.94,17.85
13.579893,913.09,855.02,14.89
13.595520,904.65,857.07,15.85
13.611147,903.34,847.53,12.06
13.626774,900.63,846.67,14.19
13.642401,894.83,845.23,13.69
13.658028,894.32,836.86,14.40
13.673655,893.32,840.93,16.18
13.689282,890.41,826.10,13.14
13.704909,894.11,832.47,13.90
13.720537,882.84,831.49,11.89
13.736164,885.65,825.79,13.37
13.751791,884.57,821.40,15.61
13.767418,879.37,820.24,15.73
13.783045,874.98,816.68,12.01
13.798672,867.10,819.58,14.60
13.814299,868.41,808.59,18.20
13.829926,864.18,804.86,12.37
13.845553,863.84,799.71,12.93
13.861180,858.99,800.71,15.43
13.876807,857.88,795.75,15.80
13.892434,856.54,792.63,19.08
13.908061,856.39,788.70,12.28
13.923688,849.72,792.98,14.63
13.939315,850.60,788.20,13.08
13.954942,845.01,790.53,18.28
13.970569,850.51,794.15,18.51
13.986196,849.36,797.87,11.81
14.001823,853.76,792.45,15.24
14.017450,863.73,805.29,15.34
14.033077,869.62,809.61,13.83
14.048704,876.17,816.69,19.70
14.064331,886.98,825.74,17.62
14.079958,888.34,835.85,16.65
14.095585,894.78,847.71,18.04
14.111212,909.98,854.34,15.97
14.126839,914.63,870.01,10.91
14.142466,923.16,879.57,15.92
14.158094,935.40,888.21,12.32
14.173721,944.06,892.94,15.22
14.189348,941.98,904.46,16.19
14.204975,956.07,909.07,15.00
14.220602,957.54,917.78,19.06
14.236229,959.40,917.41,13.03
14.251856,964.21,922.99,15.41
14.267483,964.35,923.06,16.34
14.283110,961.35,918.04,15.26
14.298737,964.22,923.91,15.65
14.314364,955.20,914.45,16.75
14.329991,955.54,913.61,15.23
14.345618,951.08,904.51,13.26
14.361245,949.56,898.88,11.92
14.376872,942.38,894.05,12.14
14.392499,939.61,885.91,17.02
14.408126,932.23,885.21,14.17
14.423753,919.95,870.30,15.53
14.439380,917.28,858.88,16.68
14.455007,909.52,863.53,13.50
14.470634,910.46,857.54,12.76
14.486261,895.41,844.25,11.98
14.501888,897.78,845.82,14.58
14.517515,895.93,839.36,13.68
14.533142,895.30,834.51,18.01
14.548769,888.86,840.94,11.59
14.564396,882.58,832.04,15.76
14.580023,883.22,827.90,14.97
14.595650,888.65,831.23,14.95
14.611278,876.31,825.51,16.66
14.626905,882.36,821.95,17.83
14.642532,874.99,817.75,16.43
14.658159,875.47,813.40,17.87
14.673786,869.84,816.16,15.35
14.689413,868.02,811.50,11.83
14.705040,873.09,807.12,13.32
14.720667,860.21,801.93,12.43
14.736294,862.10,793.43,15.01
14.751921,852.21,791.49,16.84
14.767548,851.28,794.82,17.34
14.783175,852.36,783.68,11.58
14.798802,850.66,788.08,14.88
14.814429,852.33,786.47,15.75
14.830056,839.38,784.45,14.38
14.845683,849.00,787.38,15.07
14.861310,846.51,787.69,14.07
14.876937,861.13,793.12,13.15
14.892564,859.62,798.41,19.08
14.908191,860.18,812.18,13.45
14.923818,871.47,815.48,16.48
14.939445,876.87,823.06,14.81
14.955072,890.09,832.32,15.75
14.970699,898.25,840.06,17.76
14.986326,898.66,852.22,18.51
15.001953,911.08,865.83,13.36
15.017580,922.83,868.94,16.81
15.033207,929.80,882.87,17.30
15.048834,938.21,888.87,17.29
15.064462,942.61,895.12,15.69
15.080089,949.36,910.92,15.43
15.095716,956.74,913.48,13.32
15.111343,958.98,918.64,14.88
15.126970,963.04,920.23,13.48
15.142597,957.38,917.78,15.08
15.158224,962.37,917.30,13.35
15.173851,961.19,920.70,15.17
15.189478,953.91,911.12,15.09
15.205105,948.00,916.77,14.81
15.220732,949.36,905.64,15.35
15.236359,944.81,898.69,13.36
15.251986,941.46,897.12,14.06
15.267613,932.31,881.34,14.84
15.283240,925.10,878.60,18.96
15.298867,920.33,870.49,13.59
15.314494,913.58,862.04,15.71
15.330121,910.97,862.19,15.93
15.345748,908.16,847.35,15.57
15.361375,900.15,848.44,11.94
15.377002,897.14,844.63,14.82
15.392629,890.96,838.51,12.32
15.408256,893.99,837.91,11.15
15.423883,889.63,831.01,14.44
15.439510,886.89,830.00,14.41
15.455137,883.26,826.27,14.40
15.470764,882.53,827.16,16.85
15.486391,880.65,826.21,16.37
15.502018,880.87,827.40,17.43
15.517646,876.82,822.74,11.06
15.533273,874.82,814.89,12.15
15.548900,876.51,815.94,19.25
15.564527,862.89,815.49,15.76
15.580154,861.03,803.53,14.92
15.595781,860.29,805.08,16.72
15.611408,860.97,796.37,17.41
15.627035,858.14,796.78,15.54
15.642662,850.54,800.23,15.86
15.658289,854.28,786.77,13.64
15.673916,850.20,786.76,16.77
15.689543,847.66,789.23,16.94
15.705170,846.66,786.53,14.80
15.720797,845.75,786.37,14.42
15.736424,844.88,790.62,17.15
15.752051,848.88,789.54,10.03
15.767678,859.33,794.12,12.45
15.783305,863.54,800.98,16.19
15.798932,870.07,810.92,14.20
15.814559,877.01,821.18,12.22
15.830186,878.49,828.24,13.47
15.845813,888.17,834.35,18.37
15.861440,895.54,848.79,15.29
15.877067,912.62,859.94,14.07
15.892694,919.30,869.61,14.14
15.908321,925.81,880.98,15.09
15.923948,935.24,890.79,15.64
15.939575,947.91,893.28,16.55
15.955203,940.53,900.72,12.93
15.970830,956.21,912.02,15.39
15.986457,953.86,914.67,16.77
16.002084,962.70,918.11,12.73
16.017711,958.75,923.03,15.99
16.033338,962.76,919.57,13.58
16.048965,956.73,921.38,12.68
16.064592,953.23,915.93,14.90
16.080219,960.48,915.39,16.13
16.095846,945.96,906.69,13.54
16.111473,940.28,899.22,14.15
16.127100,936.69,893.50,12.46
16.142727,933.07,890.66,11.18
16.158354,927.49,879.16,15.88
16.173981,918.69,870.68,13.39
16.189608,916.50,870.77,15.01
16.205235,910.06,859.61,16.36
16.220862,904.50,856.55,14.21
16.236489,899.93,851.59,16.11
16.252116,892.85,844.09,12.91
16.267743,895.61,840.26,18.76
16.283370,891.45,847.19,17.48
16.298997,891.67,835.83,16.30
16.314624,883.68,830.86,17.19
16.330251,874.42,832.59,13.03
16.345878,879.61,830.83,18.63
16.361505,878.23,826.76,12.27
16.377132,877.60,819.65,14.77
16.392759,877.61,822.05,15.08
16.408387,879.46,816.45,16.18
16.424014,872.77,814.26,16.11
16.439641,867.06,807.14,17.30
16.455268,861.61,809.26,14.61
16.470895,858.54,808.60,15.86
16.486522,856.18,800.11,16.82
16.502149,852.58,795.67,15.08
16.517776,858.25,789.62,13.91
16.533403,843.59,786.01,17.58
16.549030,845.59,786.67,15.94
16.564657,846.50,783.25,14.92
16.580284,840.77,782.92,13.24
16.595911,839.33,785.41,14.50
16.611538,846.76,788.08,12.43
16.627165,846.83,786.23,11.74
16.642792,857.87,792.52,15.69
16.658419,862.65,801.35,14.02
16.674046,867.30,809.53,12.74
16.689673,866.77,812.78,13.90
16.705300,879.77,825.29,15.52
16.720927,889.62,834.68,16.05
16.736554,895.32,842.43,14.80
16.752181,906.96,856.56,15.59
16.767808,913.20,863.03,13.70
16.783435,919.74,875.25,19.12
16.799062,930.94,883.50,14.64
16.814689,932.09,892.38,12.10
16.830316,944.27,900.85,15.08
16.845943,952.26,909.62,16.30
16.861571,952.65,914.54,16.16
16.877198,954.04,920.22,13.92
16.892825,960.77,919.82,15.19
16.908452,959.25,917.81,12.51
16.924079,957.72,921.36,17.68
16.939706,954.91,911.38,13.76
16.955333,951.25,908.97,15.65
16.970960,948.61,905.89,14.20
16.986587,943.73,897.71,14.40
17.002214,936.33,890.88,17.68
17.017841,934.16,895.50,15.66
17.033468,926.37,882.70,17.96
17.049095,921.62,867.37,15.74
17.064722,915.61,867.40,15.95
17.080349,909.32,858.00,13.17
17.095976,909.18,857.63,18.22
17.111603,903.59,850.44,16.08
17.127230,894.81,843.68,16.65
17.142857,888.61,839.40,14.15
17.158484,894.49,837.52,17.09
17.174111,886.99,835.71,17.39
17.189738,885.06,832.51,15.26
17.205365,889.88,825.01,16.86
17.220992,879.56,827.59,14.32
17.236619,878.05,822.57,15.09
17.252246,870.29,817.23,10.79
17.267873,874.87,821.87,13.74
17.283500,875.92,816.78,10.89
17.299127,867.61,813.99,16.51
17.314755,861.81,805.65,13.13
17.330382,862.98,804.55,8.66
17.346009,861.04,806.09,15.93
17.361636,860.27,801.13,15.75
17.377263,853.00,792.64,13.68
17.392890,848.66,786.44,15.03
17.408517,846.76,790.21,14.91
17.424144,850.59,783.04,16.13
17.439771,841.51,785.26,21.23
17.455398,837.98,780.26,15.43
17.471025,840.72,783.72,12.89
17.486652,845.40,784.04,15.48
17.502279,845.10,788.24,17.04
17.517906,851.02,789.02,13.26
17.533533,858.20,794.94,16.89
17.549160,862.22,802.99,15.13
17.564787,861.58,809.67,13.48
17.580414,871.40,829.81,16.44
17.596041,879.43,828.57,13.75
17.611668,893.01,834.14,15.37
17.627295,899.47,850.29,17.57
17.642922,911.49,856.42,15.60
17.658549,915.96,873.32,13.31
17.674176,924.66,877.85,15.16
17.689803,932.95,888.61,16.84
17.705430,938.60,894.00,18.01
17.721057,947.83,902.67,15.47
17.736684,949.37,909.98,14.11
17.752311,953.26,912.36,16.45
17.767939,957.27,914.69,14.77
17.783566,955.02,920.37,17.44
17.799193,961.89,914.60,12.93
17.814820,958.69,916.73,12.57
17.830447,950.28,905.90,13.76
17.846074,953.54,905.06,17.00
17.861701,944.80,897.49,13.36
17.877328,935.97,899.39,14.89
17.892955,938.70,884.39,13.87
17.908582,926.56,876.44,15.88
17.924209,920.91,880.52,13.87
17.939836,916.18,871.09,15.83
17.955463,912.51,861.43,16.30
17.971090,904.37,858.83,13.17
17.986717,901.16,849.72,17.11
18.002344,899.90,840.14,15.02
18.017971,887.27,842.16,11.71
18.033598,891.30,837.62,14.26
18.049225,885.27,836.47,15.16
18.064852,885.18,831.05,16.61
18.080479,882.81,828.29,13.61
18.096106,881.70,824.30,13.53
18.111733,873.00,820.91,14.49
18.127360,873.33,822.00,14.82
18.142987,871.61,816.89,17.11
18.158614,867.04,819.28,18.35
18.174241,869.24,811.39,16.88
18.189868,861.91,807.46,16.76
18.205496,865.85,802.88,15.04
18.221123,860.73,806.70,15.00
18.236750,862.10,797.14,16.08
18.252377,846.31,791.13,14.12
18.268004,848.77,784.76,16.44
18.283631,843.75,786.52,15.40
18.299258,841.28,785.42,14.30
18.314885,839.94,786.72,14.44
18.330512,844.47,783.65,19.16
18.346139,837.27,783.08,18.53
18.361766,843.82,784.90,16.92
18.377393,844.60,780.22,16.64
18.393020,841.34,787.91,15.48
18.408647,847.50,793.88,12.54
18.424274,855.83,798.60,13.67
18.439901,859.92,806.33,14.56
18.455528,870.32,814.40,17.40
18.471155,875.21,826.63,17.60
18.486782,886.73,834.57,14.65
18.502409,895.75,847.68,15.26
18.518036,908.44,855.32,18.31
18.533663,915.79,867.92,12.83
18.549290,920.37,873.81,14.85
18.564917,930.35,889.96,13.69
18.580544,935.74,896.54,14.79
18.596171,941.85,901.95,14.26
18.611798,950.72,906.95,15.32
18.627425,952.91,905.55,14.35
18.643052,956.19,918.72,14.15
18.658680,954.15,919.52,14.28
18.674307,955.14,919.90,14.25
18.689934,953.45,915.65,11.87
18.705561,953.89,905.28,15.47
18.721188,948.73,907.89,14.15
18.736815,941.61,900.60,17.83
18.752442,934.14,900.25,16.40
18.768069,927.33,887.28,12.25
18.783696,924.53,881.95,11.42
18.799323,923.67,877.36,10.91
18.814950,918.54,872.33,17.23
18.830577,905.62,863.02,15.06
18.846204,908.87,858.70,13.83
18.861831,898.95,855.44,11.31
18.877458,893.81,850.09,18.99
18.893085,891.27,842.57,13.87
18.908712,889.82,833.84,15.33
18.924339,885.28,833.19,13.90
18.939966,884.94,837.09,12.16
18.955593,877.47,832.84,14.71
18.971220,881.48,825.84,17.54
18.986847,876.85,819.01,14.26
19.002474,875.18,826.11,12.63
19.018101,867.47,821.93,12.28
19.033728,873.09,812.08,15.32
19.049355,867.69,809.23,14.86
19.064982,867.97,807.37,15.63
19.080609,861.49,807.87,15.73
19.096236,858.01,799.54,18.85
19.111864,852.33,800.03,12.35
19.127491,855.08,790.50,16.76
19.143118,845.31,795.24,17.71
19.158745,844.74,788.14,15.55
19.174372,840.13,785.99,17.49
19.189999,836.56,781.27,18.52
19.205626,843.40,782.44,17.45
19.221253,839.19,782.88,13.36
19.236880,837.24,789.52,15.39
19.252507,840.92,780.64,14.11
19.268134,842.13,788.14,13.92
19.283761,844.39,796.13,14.46
19.299388,852.64,798.75,14.35
19.315015,858.56,806.26,12.37
19.330642,872.18,813.69,17.32
19.346269,877.15,823.09,14.13
19.361896,886.52,832.23,14.52
19.377523,892.66,841.84,13.33
19.393150,901.20,855.28,16.34
19.408777,910.84,867.28,15.81
19.424404,917.88,875.52,12.40
19.440031,919.80,883.50,12.83
19.455658,934.65,891.27,17.01
19.471285,935.49,897.93,11.08
19.486912,950.75,905.35,13.46
19.502539,951.12,910.38,15.49
19.518166,947.55,912.28,13.81
19.533793,952.44,914.15,13.56
19.549420,950.67,917.55,12.30
19.565048,952.30,921.18,12.44
19.580675,948.48,911.98,15.95
19.596302,942.53,904.40,17.29
19.611929,944.11,904.78,16.11
19.627556,940.47,896.58,17.07
19.643183,929.88,892.51,13.72
19.658810,928.53,886.21,15.64
19.674437,922.74,875.88,13.74
19.690064,913.29,869.32,16.46
19.705691,909.86,864.92,10.10
19.721318,903.79,856.35,12.53
19.736945,899.04,850.71,14.37
19.752572,896.09,843.79,13.73
19.768199,891.68,844.42,13.54
19.783826,888.26,839.13,12.88
19.799453,890.22,834.46,18.14
19.815080,884.65,834.02,16.24
19.830707,883.04,829.55,14.83
19.846334,879.53,832.20,15.66
19.861961,877.37,825.23,16.82
19.877588,870.90,818.61,14.92
19.893215,871.54,815.34,14.88
19.908842,873.43,818.15,15.51
19.924469,864.57,812.70,10.34
19.940096,860.35,810.69,14.15
19.955723,860.26,816.35,17.28
19.971350,857.33,802.69,16.65
19.986977,848.85,804.33,12.91
20.002605,853.03,797.48,14.96
20.018232,849.99,787.73,15.04
20.033859,850.54,787.62,15.92
20.049486,843.84,790.30,14.73
20.065113,835.38,782.53,14.00
20.080740,839.46,777.88,15.32
20.096367,838.91,786.69,14.69
20.111994,841.10,776.33,11.65
20.127621,836.00,782.28,16.41
20.143248,844.15,786.67,14.52
20.158875,845.11,789.42,15.73
20.174502,844.36,795.37,16.37
20.190129,859.23,801.28,16.34
20.205756,863.61,807.81,17.10
20.221383,869.00,817.74,18.54
20.237010,877.92,827.76,16.60
20.252637,891.85,832.38,13.97
20.268264,891.74,849.10,17.31
20.283891,902.71,860.14,16.73
20.299518,915.98,871.76,15.92
20.315145,915.67,882.65,18.16
20.330772,934.63,887.33,17.97
20.346399,934.26,893.74,13.53
20.362026,944.48,902.15,16.34
20.377653,949.06,908.69,14.65
20.393280,946.12,914.20,15.47
20.408907,957.34,909.94,16.85
20.424534,949.85,915.23,12.98
20.440161,957.79,911.32,15.63
20.455789,949.46,912.25,13.64
20.471416,948.44,906.95,17.62
20.487043,944.19,906.33,15.20
20.502670,941.86,904.66,15.58
20.518297,937.82,891.28,17.37
20.533924,928.72,882.81,18.34
20.549551,923.33,885.93,16.43
20.565178,912.69,874.53,15.62
20.580805,911.88,867.19,15.47
20.596432,899.13,865.31,20.94
20.612059,901.51,856.62,17.46
20.627686,897.97,853.24,12.65
20.643313,893.75,845.72,14.88
20.658940,888.12,835.52,15.84
20.674567,886.66,841.46,15.97
20.690194,890.78,832.89,11.93
20.705821,883.22,833.44,15.06
20.721448,880.32,824.75,16.64
20.737075,871.88,822.20,14.86
20.752702,875.51,825.44,14.63
20.768329,869.59,826.20,11.31
20.783956,870.98,822.28,14.89
20.799583,867.54,811.36,19.29
20.815210,865.09,811.93,14.63
20.830837,863.84,808.57,14.32
20.846464,857.78,806.39,15.24
20.862091,855.05,802.42,15.57
20.877718,852.08,796.48,16.01
20.893345,849.58,795.60,19.95
20.908973,845.18,786.64,13.51
20.924600,845.38,783.95,16.62
20.940227,842.60,779.99,16.68
20.955854,836.80,780.49,15.69
20.971481,841.76,777.67,15.28
20.987108,841.15,776.76,11.22
21.002735,839.78,785.66,15.27
21.018362,837.76,785.28,12.76
21.033989,845.69,788.38,13.70
21.049616,848.04,789.69,14.54
21.065243,853.08,795.71,17.22
21.080870,861.52,806.72,16.12
21.096497,865.22,817.06,16.58
21.112124,870.83,822.38,13.09
21.127751,888.07,833.31,15.67
21.143378,894.97,844.30,17.91
21.159005,902.22,850.63,16.27
21.174632,910.94,862.06,13.00
21.190259,916.70,873.84,12.61
21.205886,922.52,883.27,12.63
21.221513,930.53,893.02,12.09
21.237140,943.02,899.55,13.54
21.252767,944.59,904.93,17.52
21.268394,944.12,909.08,11.57
21.284021,950.90,915.06,12.13
21.299648,951.37,911.41,12.67
21.315275,949.69,911.66,15.03
21.330902,955.67,918.40,16.59
21.346529,945.15,909.34,17.33
21.362157,954.46,906.91,16.35
21.377784,942.17,908.60,13.50
21.393411,938.75,899.82,10.41
21.409038,928.90,889.18,18.22
21.424665,925.32,876.10,14.91
21.440292,916.13,879.80,17.28
21.455919,912.66,871.30,16.64
21.471546,905.70,862.94,14.85
21.487173,904.20,858.70,14.09
21.502800,898.79,850.01,14.56
21.518427,886.45,844.94,14.81
21.534054,888.13,839.81,18.04
21.549681,886.13,844.50,14.43
21.565308,888.28,831.34,16.02
21.580935,881.12,827.97,17.69
21.596562,880.76,828.51,14.98
21.612189,875.12,830.95,16.13
21.627816,873.46,822.67,13.14
21.643443,870.97,827.29,12.61
21.659070,869.45,819.62,14.28
21.674697,869.05,818.16,13.83
21.690324,867.29,816.62,18.21
21.705951,863.94,808.98,15.74
21.721578,861.58,813.41,18.24
21.737205,854.44,806.82,11.03
21.752832,855.04,801.64,17.78
21.768459,851.07,793.95,15.06
21.784086,840.77,789.32,15.01
21.799714,846.83,786.80,11.60
21.815341,841.26,782.20,13.78
21.830968,838.38,781.64,13.76
21.846595,843.42,783.94,13.76
21.862222,833.87,780.90,15.13
21.877849,839.21,787.77,12.43
21.893476,836.71,787.32,15.89
21.909103,839.59,783.49,12.24
21.924730,849.77,787.65,17.22
21.940357,852.19,799.28,15.18
21.955984,857.61,803.57,12.67
21.971611,864.09,813.56,15.24
21.987238,870.87,817.18,16.02
22.002865,877.84,832.76,13.39
22.018492,890.93,838.99,14.19
22.034119,895.90,851.81,14.69
22.049746,903.66,859.63,13.52
22.065373,920.16,872.62,15.90
22.081000,924.05,878.94,15.16
22.096627,925.64,886.54,16.71
22.112254,940.60,896.07,15.41
22.127881,944.23,905.46,16.57
22.143508,946.67,907.59,18.13
22.159135,949.82,913.37,16.29
22.174762,949.21,915.13,14.58
22.190389,947.58,913.98,14.51
22.206016,949.75,913.73,15.39
22.221643,949.86,909.79,15.03
22.237270,942.10,908.49,14.99
22.252898,944.39,905.62,17.93
22.268525,934.87,890.32,12.35
22.284152,935.28,887.47,11.72
22.299779,929.64,889.03,16.74
22.315406,917.57,876.45,12.64
22.331033,916.56,874.07,12.17
22.346660,903.97,866.02,16.21
22.362287,905.51,859.36,13.79
22.377914,903.04,851.97,14.50
22.393541,895.10,844.87,17.31
22.409168,899.17,845.43,15.52
22.424795,890.12,841.66,16.13
22.440422,881.22,833.17,14.25
22.456049,885.75,831.42,10.10
22.471676,880.12,828.57,14.58
22.487303,878.05,822.89,15.04
22.502930,876.34,823.21,14.34
22.518557,872.91,826.29,15.70
22.534184,868.80,822.88,12.41
22.549811,865.88,816.81,15.84
22.565438,873.86,813.15,12.82
22.581065,862.48,811.11,13.30
22.596692,860.79,807.37,17.27
22.612319,856.92,801.40,16.69
22.627946,855.87,800.96,14.60
22.643573,854.36,797.68,11.89
22.659200,848.10,795.49,14.85
22.674827,847.13,790.67,16.41
22.690454,838.10,783.08,15.44
22.706082,835.15,787.14,14.66
22.721709,837.81,781.07,15.21
22.737336,838.13,778.83,15.50
22.752963,838.62,779.22,16.09
22.768590,841.42,783.80,14.74
22.784217,842.50,787.36,14.71
22.799844,847.80,789.90,15.50
22.815471,847.75,797.09,13.30
22.831098,856.73,799.05,17.91
22.846725,860.16,804.78,15.08
22.862352,864.06,812.88,18.17
22.877979,876.27,825.29,16.37
22.893606,886.78,833.84,16.08
22.909233,893.48,846.17,12.46
22.924860,903.73,853.31,18.93
22.940487,907.74,863.28,12.41
22.956114,917.89,875.82,16.49
22.971741,929.87,883.93,13.33
22.987368,936.76,894.75,16.10
23.002995,940.75,899.09,16.49
23.018622,946.34,912.62,9.85
23.034249,947.19,917.17,13.19
23.049876,946.09,914.35,16.81
23.065503,948.41,915.56,13.95
23.081130,944.55,915.09,12.97
23.096757,946.03,920.11,15.45
23.112384,943.92,910.43,16.12
23.128011,942.26,906.66,17.54
23.143638,940.73,896.47,14.86
23.159266,931.71,894.08,15.23
23.174893,929.20,894.85,12.48
23.190520,919.93,883.53,13.93
23.206147,912.07,874.79,16.29
23.221774,915.49,871.46,14.63
23.237401,907.13,864.55,16.56
23.253028,907.12,849.44,16.08
23.268655,895.71,854.58,15.82
23.284282,893.38,842.75,14.43
23.299909,890.34,847.29,16.36
23.315536,887.51,834.88,14.36
23.331163,881.77,837.77,12.76
23.346790,874.10,834.15,14.24
23.362417,878.08,827.88,16.83
23.378044,877.12,821.92,12.83
23.393671,880.24,822.17,15.99
23.409298,875.43,827.76,13.52
23.424925,873.18,816.82,12.82
23.440552,866.04,816.23,13.94
23.456179,864.61,815.49,16.01
23.471806,867.21,805.41,14.21
23.487433,857.20,804.16,16.93
23.503060,857.53,803.05,16.05
23.518687,854.34,798.86,17.15
23.534314,846.44,800.66,15.66
23.549941,847.96,793.33,13.79
23.565568,841.37,790.76,13.53
23.581195,839.85,783.96,15.45
23.596823,840.12,785.98,16.58
23.612450,833.17,785.55,14.68
23.628077,841.50,781.05,16.86
23.643704,837.17,781.08,15.34
23.659331,842.82,786.49,11.65
23.674958,838.32,791.46,16.53
23.690585,841.16,794.42,15.53
23.706212,856.52,801.38,12.44
23.721839,862.16,806.06,17.66
23.737466,866.79,813.34,16.59
23.753093,873.11,825.56,15.21
23.768720,886.40,830.10,13.65
23.784347,892.87,842.76,12.54
23.799974,901.12,856.11,17.51
23.815601,908.27,863.81,13.67
23.831228,911.15,882.03,15.42
23.846855,923.21,886.76,12.79
23.862482,930.52,887.98,11.45
23.878109,939.62,896.90,14.90
23.893736,939.62,903.82,14.68
23.909363,951.48,914.93,13.63
23.924990,951.01,917.36,16.22
23.940617,951.44,921.09,15.96
23.956244,957.34,909.95,13.64
23.971871,953.93,908.21,12.80
23.987498,953.61,918.46,15.24
24.003125,946.57,912.86,14.49
24.018752,945.39,910.69,14.01
24.034379,933.30,891.77,19.83
24.050007,928.55,891.29,19.41
24.065634,925.66,884.10,15.89
24.081261,923.47,880.15,15.27
24.096888,917.09,872.47,13.02
24.112515,911.01,862.73,17.45
24.128142,905.09,857.80,11.21
24.143769,906.48,848.12,10.79
24.159396,891.53,849.82,14.31
24.175023,886.37,837.30,14.90
24.190650,892.53,844.19,13.09
24.206277,885.22,834.89,14.86
24.221904,878.70,833.18,13.92
24.237531,880.33,831.15,17.31
24.253158,874.53,826.13,15.84
24.268785,871.24,827.17,16.66
24.284412,877.90,822.59,10.68
24.300039,872.62,821.89,14.57
24.315666,865.80,816.66,15.96
24.331293,863.35,817.42,18.30
24.346920,866.51,815.76,13.57
24.362547,862.36,803.52,15.02
24.378174,856.16,804.15,15.42
24.393801,852.44,801.51,16.81
24.409428,856.06,796.80,17.53
24.425055,848.11,788.95,17.14
24.440682,847.40,792.74,13.57
24.456309,837.64,797.32,15.79
24.471936,840.64,784.63,15.64
24.487563,838.19,788.16,13.27
24.503191,839.97,780.52,17.65
24.518818,840.62,781.44,12.87
24.534445,841.31,783.32,12.29
24.550072,843.35,787.12,15.62
24.565699,843.54,793.85,13.98
24.581326,852.92,796.98,13.04
24.596953,854.85,805.79,17.02
24.612580,863.92,817.49,14.89
24.628207,877.65,822.15,20.14
24.643834,876.46,827.52,12.03
24.659461,887.74,845.53,16.86
24.675088,893.91,849.65,14.77
24.690715,905.54,854.37,11.82
24.706342,916.18,871.17,14.07
24.721969,925.42,879.21,16.07
24.737596,927.22,895.88,15.65
24.753223,943.45,900.29,15.16
24.768850,939.96,904.16,12.61
24.784477,947.21,913.59,13.95
24.800104,952.76,918.82,16.77
24.815731,950.71,917.55,18.39
24.831358,954.35,916.04,12.16
24.846985,951.60,914.92,16.88
24.862612,946.51,910.37,15.72
24.878239,948.99,914.90,18.10
24.893866,943.04,908.49,16.76
24.909493,943.40,902.95,13.47
24.925120,934.99,897.23,14.17
24.940747,930.17,889.27,14.11
24.956375,925.09,882.39,10.68
24.972002,917.98,873.61,15.55
24.987629,914.20,868.41,15.74
25.003256,902.64,859.29,13.50
25.018883,899.81,860.10,16.18
25.034510,900.14,853.81,13.33
25.050137,890.97,844.82,20.58
25.065764,890.22,839.41,19.56
25.081391,889.01,838.06,17.79
25.097018,877.29,830.95,15.70
25.112645,882.05,827.17,13.31
25.128272,874.45,826.66,16.25
25.143899,875.39,827.83,13.96
25.159526,875.16,824.06,16.79
25.175153,871.97,823.62,12.51
25.190780,870.03,817.45,17.72
25.206407,866.65,821.60,12.32
25.222034,872.32,812.97,13.05
25.237661,860.54,809.33,15.74
25.253288,864.73,805.07,11.88
25.268915,855.26,804.80,17.37
25.284542,850.17,794.05,12.64
25.300169,853.93,797.46,16.07
25.315796,846.08,789.16,18.26
25.331423,846.16,785.54,17.16
25.347050,845.64,781.70,14.65
25.362677,838.64,784.87,18.95
25.378304,836.37,782.08,16.97
25.393932,840.63,787.71,14.15
25.409559,839.74,784.68,14.08
25.425186,838.26,791.54,17.59
25.440813,841.00,795.09,14.22
25.456440,848.68,802.58,14.00
25.472067,855.23,806.66,18.80
25.487694,862.55,815.28,12.38
25.503321,865.32,816.42,15.17
25.518948,882.40,827.89,17.29
25.534575,886.79,841.12,18.59
25.550202,900.67,848.14,13.91
25.565829,902.32,859.91,14.82
25.581456,915.78,872.66,16.74
25.597083,924.28,878.75,16.28
25.612710,927.15,891.59,13.80
25.628337,941.02,895.06,12.82
25.643964,943.43,905.53,14.55
25.659591,946.76,910.78,18.60
25.675218,950.05,909.56,15.88
25.690845,945.27,920.21,14.68
25.706472,954.93,918.41,13.22
25.722099,951.04,917.22,14.13
25.737726,953.40,920.14,16.15
25.753353,950.91,915.45,13.47
25.768980,942.95,910.96,13.52
25.784607,937.38,905.54,11.69
25.800234,928.04,898.26,14.91
25.815861,927.56,893.15,16.78
25.831488,924.82,885.71,16.16
25.847116,918.17,875.87,15.02
25.862743,915.04,869.17,14.27
25.878370,907.84,864.92,15.88
25.893997,903.11,857.93,13.09
25.909624,895.29,851.65,16.03
25.925251,891.19,851.04,18.35
25.940878,891.23,839.00,16.51
25.956505,893.51,841.98,16.40
25.972132,883.94,838.46,17.19
25.987759,876.56,836.87,13.01
26.003386,881.17,827.05,16.09
26.019013,882.03,828.34,15.89
26.034640,872.94,823.00,19.09
26.050267,872.92,829.19,15.64
26.065894,877.44,821.57,14.70
26.081521,868.45,817.69,12.11
26.097148,868.30,817.12,16.74
26.112775,865.45,809.21,15.31
26.128402,859.98,814.00,15.74
26.144029,858.24,805.90,15.38
26.159656,852.63,800.48,15.57
26.175283,852.25,803.08,16.59
26.190910,847.10,796.35,16.71
26.206537,844.88,795.54,16.99
26.222164,845.43,790.41,12.93
26.237791,838.45,780.87,17.13
26.253418,843.74,787.61,15.03
26.269045,838.64,783.47,16.18
26.284672,845.21,787.79,16.38
26.300300,844.97,795.01,14.63
26.315927,842.48,792.81,18.98
26.331554,854.85,794.60,12.40
26.347181,857.64,807.07,14.02
26.362808,865.53,809.16,15.62
26.378435,871.58,821.29,13.63
26.394062,875.42,819.31,14.55
26.409689,884.12,832.05,15.11
26.425316,897.52,848.71,17.81
26.440943,901.39,857.82,13.18
26.456570,909.76,866.19,8.74
26.472197,924.94,877.11,17.93
26.487824,929.86,889.00,14.46
26.503451,933.48,893.63,17.66
26.519078,939.97,908.22,16.02
26.534705,954.30,911.73,13.92
26.550332,953.02,915.44,11.54
26.565959,952.68,920.33,16.89
26.581586,955.10,916.00,11.76
26.597213,956.72,919.66,15.40
26.612840,953.39,915.41,13.31
26.628467,953.84,916.61,17.58
26.644094,947.64,915.16,13.16
26.659721,941.03,904.48,17.89
26.675348,945.96,902.80,16.20
26.690975,940.07,894.62,14.50
26.706602,930.87,893.22,10.89
26.722229,914.22,884.13,14.35
26.737856,916.58,870.64,12.12
26.753484,909.53,866.88,13.24
26.769111,905.95,860.05,13.84
26.784738,896.76,851.57,15.94
26.800365,896.37,852.54,15.28
26.815992,893.62,842.50,16.63
26.831619,888.90,840.12,16.69
26.847246,887.13,839.53,12.40
26.862873,884.65,834.50,17.43
26.878500,878.52,838.46,9.94
26.894127,880.65,832.06,17.43
26.909754,879.75,829.41,11.36
26.925381,876.71,826.26,15.07
26.941008,875.13,822.69,18.74
26.956635,871.17,819.21,16.24
26.972262,871.56,814.92,16.47
26.987889,867.06,822.05,17.88
27.003516,860.04,815.76,12.74
27.019143,863.82,813.55,13.44
27.034770,861.35,804.96,18.23
27.050397,848.84,803.44,14.87
27.066024,850.46,796.95,16.67
27.081651,850.91,800.17,18.36
27.097278,850.41,787.45,13.89
27.112905,843.99,785.81,16.43
27.128532,842.37,790.49,13.54
27.144159,847.36,788.08,16.64
27.159786,848.94,788.20,16.02
27.175413,840.73,788.57,14.72
27.191041,846.43,790.50,15.37
27.206668,846.85,794.73,18.39
27.222295,855.45,798.10,16.19
27.237922,862.24,808.70,17.17
27.253549,871.11,816.04,14.43
27.269176,870.99,825.22,13.90
27.284803,884.77,836.31,10.38
27.300430,891.77,843.52,12.68
27.316057,899.50,853.29,16.23
27.331684,911.43,866.54,14.56
27.347311,917.95,877.02,15.12
27.362938,930.62,885.47,18.57
27.378565,937.73,895.33,15.04
27.394192,944.73,905.67,14.64
27.409819,945.48,907.08,17.94
27.425446,950.14,910.88,15.80
27.441073,947.54,916.44,14.19
27.456700,955.88,924.75,13.97
27.472327,958.86,922.89,14.52
27.487954,954.58,918.23,13.26
27.503581,951.92,916.21,12.92
27.519208,952.56,914.66,13.49
27.534835,954.06,911.95,10.43
27.550462,939.46,906.48,18.55
27.566089,944.78,897.64,12.69
27.581716,936.77,889.35,12.35
27.597343,935.31,887.59,14.87
27.612970,924.21,881.03,13.34
27.628597,916.12,873.31,11.66
27.644225,903.45,867.60,15.26
27.659852,903.00,864.11,9.93
27.675479,900.04,857.77,14.06
27.691106,893.91,854.14,11.61
27.706733,898.59,841.20,16.44
27.722360,891.27,837.80,12.40
27.737987,884.62,839.43,13.19
27.753614,885.59,836.96,14.99
27.769241,881.07,833.04,17.85
27.784868,882.07,834.88,13.73
27.800495,878.79,827.58,11.84
27.816122,875.55,827.00,14.91
27.831749,873.87,827.06,14.97
27.847376,870.09,822.91,16.36
27.863003,865.18,821.28,15.20
27.878630,862.73,820.74,13.54
27.894257,861.72,807.81,16.07
27.909884,860.35,806.79,13.96
27.925511,864.04,801.42,13.44
27.941138,854.50,801.53,13.29
27.956765,847.78,798.04,12.80
27.972392,849.90,791.65,9.04
27.988019,853.68,793.47,16.88
28.003646,843.40,792.62,15.01
28.019273,840.32,784.06,16.48
28.034900,842.40,785.90,16.38
28.050527,839.99,786.64,13.39
28.066154,845.07,790.42,15.35
28.081781,843.27,792.47,17.08
28.097409,847.98,797.77,14.70
28.113036,856.71,806.13,17.34
28.128663,862.59,813.14,9.55
28.144290,872.67,820.50,15.73
28.159917,878.47,832.75,16.20
28.175544,887.37,840.80,17.05
28.191171,900.56,846.87,16.46
28.206798,910.53,863.05,17.78
28.222425,913.70,875.24,15.74
28.238052,925.43,884.30,13.75
28.253679,930.45,894.53,13.16
28.269306,940.86,901.30,15.29
28.284933,946.22,908.43,11.90
28.300560,949.67,913.67,12.43
28.316187,954.19,914.31,14.62
28.331814,952.31,921.53,16.71
28.347441,952.63,923.37,14.85
28.363068,958.91,919.84,13.70
28.378695,956.72,921.36,11.27
28.394322,958.18,914.21,14.17
28.409949,954.96,914.23,14.40
28.425576,945.53,910.97,13.44
28.441203,942.49,906.58,16.49
28.456830,935.98,895.22,13.18
28.472457,931.41,889.03,11.77
28.488084,920.16,884.59,11.30
28.503711,918.78,878.16,17.33
28.519338,915.49,870.72,12.05
28.534965,910.46,866.66,15.05
28.550593,906.79,858.29,16.02
28.566220,903.08,856.40,14.65
28.581847,893.53,848.16,14.86
28.597474,892.50,847.92,17.61
28.613101,887.66,840.58,17.05
28.628728,890.72,841.05,14.38
28.644355,886.74,843.20,11.81
28.659982,881.74,833.97,12.90
28.675609,880.10,831.85,19.55
28.691236,881.57,829.25,14.79
28.706863,883.68,826.60,15.08
28.722490,878.90,826.94,13.40
28.738117,868.91,824.48,15.41
28.753744,874.14,812.59,16.34
28.769371,863.57,819.89,12.41
28.784998,862.93,814.24,13.18
28.800625,861.22,806.52,16.90
28.816252,857.59,801.17,14.75
28.831879,852.08,802.64,18.36
28.847506,857.20,800.19,15.68
28.863133,850.80,794.60,13.69
28.878760,848.88,791.24,14.27
28.894387,849.79,789.39,11.74
28.910014,845.57,786.53,17.85
28.925641,842.09,784.11,13.69
28.941268,851.09,793.96,12.81
28.956895,857.72,795.20,14.26
28.972522,858.05,793.16,15.87
28.988149,855.28,803.09,12.39
29.003777,857.13,809.17,16.34
29.019404,873.42,814.44,17.91
29.035031,872.06,822.72,14.91
29.050658,885.92,833.22,10.44
29.066285,888.12,842.00,15.42
29.081912,897.54,855.05,14.60
29.097539,912.56,865.95,16.67
29.113166,915.19,871.09,15.71
29.128793,927.96,883.45,15.13
29.144420,937.20,888.29,14.30
29.160047,946.81,900.88,14.29
29.175674,944.78,908.58,14.64
29.191301,952.49,916.09,14.62
29.206928,951.46,920.26,12.54
29.222555,961.35,922.91,16.33
29.238182,956.87,924.08,16.24
29.253809,962.62,925.88,11.80
29.269436,958.16,920.12,14.80
29.285063,958.76,920.97,17.83
29.300690,955.74,919.45,13.31
29.316317,949.56,911.18,15.88
29.331944,942.89,900.67,15.66
29.347571,938.82,902.92,16.21
29.363198,933.63,887.24,13.83
29.378825,927.89,887.26,12.99
29.394452,921.72,878.26,17.06
29.410079,913.26,873.28,11.46
29.425706,910.62,862.74,17.76
29.441334,902.26,862.23,16.67
29.456961,900.13,852.38,12.61
29.472588,898.71,847.07,13.40
29.488215,894.75,843.61,17.34
29.503842,890.93,842.39,10.91
29.519469,886.17,842.12,16.30
29.535096,890.70,843.35,12.05
29.550723,883.74,835.72,15.79
29.566350,879.35,836.17,14.43
29.581977,879.09,831.71,13.00
29.597604,881.06,827.98,12.65
29.613231,879.14,825.90,16.91
29.628858,877.50,820.89,17.77
29.644485,872.62,818.38,13.05
29.660112,869.79,815.04,13.80
29.675739,866.00,810.05,18.08
29.691366,862.66,810.11,14.02
29.706993,862.05,805.45,15.51
29.722620,854.39,800.55,11.77
29.738247,850.14,796.20,17.89
29.753874,851.05,793.16,15.07
29.769501,851.84,795.29,13.15
29.785128,845.88,791.48,14.09
29.800755,842.75,797.06,17.94
29.816382,847.95,791.95,12.54
29.832009,850.57,798.00,14.20
29.847636,848.01,797.10,15.42
29.863263,855.78,805.17,15.15
29.878890,862.53,801.47,16.14
29.894518,867.85,810.76,15.11
29.910145,882.86,822.12,15.03
29.925772,881.23,829.45,11.47
29.941399,891.90,839.02,14.09
29.957026,900.01,855.27,13.10
29.972653,906.62,863.29,14.93
29.988280,914.49,873.35,14.09
30.003907,921.62,880.16,13.69
30.019534,934.65,895.62,14.81
30.035161,943.50,901.78,18.58
30.050788,948.73,907.18,15.33
30.066415,951.24,919.35,15.41
30.082042,955.33,918.25,17.24
30.097669,959.89,923.92,14.05
30.113296,961.93,921.81,15.30
30.128923,961.23,925.20,14.70
30.144550,955.33,924.00,11.79
30.160177,960.71,926.55,14.50
30.175804,952.72,920.81,15.00
30.191431,953.29,917.10,11.44
30.207058,945.38,911.23,17.04
30.222685,946.30,903.76,14.98
30.238312,935.10,901.19,15.46
30.253939,931.25,884.76,12.95
30.269566,926.86,885.05,14.99
30.285193,921.25,878.22,12.93
30.300820,914.14,865.67,18.24
30.316447,906.09,863.84,15.23
30.332074,906.56,859.47,16.47
30.347702,900.61,852.06,17.68
30.363329,897.35,857.37,13.74
30.378956,899.19,846.27,14.42
30.394583,886.37,841.73,13.10
30.410210,891.35,839.54,12.76
30.425837,889.21,840.43,11.36
30.441464,886.05,834.02,15.01
30.457091,886.06,837.07,16.48
30.472718,881.10,833.37,13.41
30.488345,876.55,828.04,17.21
30.503972,879.13,824.98,15.15
30.519599,878.33,823.33,16.51
30.535226,874.95,821.59,13.50
30.550853,870.73,813.18,17.33
30.566480,868.65,807.47,11.97
30.582107,860.53,798.25,13.51
30.597734,860.03,804.08,14.05
30.613361,855.66,798.61,17.79
30.628988,850.34,797.62,15.78
30.644615,849.41,793.72,16.25
30.660242,848.64,795.14,16.06
30.675869,853.64,793.95,17.11
30.691496,846.61,795.89,16.04
30.707123,853.37,795.31,13.05
30.722750,851.72,792.06,17.80
30.738377,850.09,803.04,13.90
30.754004,859.97,806.00,13.21
30.769631,873.43,813.66,15.51
30.785258,871.34,822.32,11.87
30.800886,882.20,831.49,12.71
30.816513,883.42,837.04,14.57
30.832140,894.77,852.74,13.14
30.847767,905.74,860.95,16.70
30.863394,912.54,868.48,15.31
30.879021,922.72,878.06,13.22
30.894648,933.50,887.52,15.48
30.910275,936.75,894.80,13.95
30.925902,948.58,905.98,17.99
30.941529,952.67,912.69,14.85
30.957156,958.40,918.09,14.72
30.972783,961.44,923.47,16.09
30.988410,960.67,925.39,17.99
31.004037,961.48,925.35,17.42
31.019664,963.37,929.10,13.64
31.035291,961.71,926.19,17.46
31.050918,963.30,921.78,16.44
31.066545,959.57,916.60,17.87
31.082172,952.77,913.97,13.93
31.097799,951.76,908.82,9.38
31.113426,942.20,895.41,12.03
31.129053,931.66,885.82,12.70
31.144680,928.89,885.11,13.18
31.160307,924.78,878.01,18.46
31.175934,914.81,871.58,15.17
31.191561,910.27,867.17,13.68
31.207188,906.39,866.44,14.43
31.222815,906.54,857.26,13.91
31.238443,897.45,857.25,12.65
31.254070,895.34,849.76,14.07
31.269697,891.56,842.90,13.76
31.285324,888.77,834.93,10.77
31.300951,887.89,835.93,11.71
31.316578,889.56,834.67,16.87
31.332205,883.78,836.07,18.50
31.347832,887.10,826.61,15.49
31.363459,885.99,831.10,16.90
31.379086,885.46,829.00,14.19
31.394713,880.24,828.57,14.90
31.410340,873.67,822.61,19.38
31.425967,872.14,815.58,13.47
31.441594,863.76,813.20,15.27
31.457221,866.96,809.15,17.28
31.472848,861.95,804.66,16.40
31.488475,862.68,804.76,12.61
31.504102,851.84,798.36,20.67
31.519729,852.69,797.52,12.86
31.535356,849.20,798.47,13.89
31.550983,857.69,790.59,14.08
31.566610,850.76,788.06,14.89
31.582237,849.49,793.75,16.60
31.597864,851.81,793.50,16.37
31.613491,856.16,796.93,17.31
31.629118,863.67,800.21,19.03
31.644745,867.25,806.81,15.62
31.660372,871.01,820.04,16.36
31.675999,879.40,827.99,18.97
31.691627,887.96,834.08,16.37
31.707254,895.81,847.05,14.28
31.722881,900.68,857.22,15.32
31.738508,908.38,866.88,10.95
31.754135,926.96,878.68,16.53
31.769762,930.68,884.32,17.93
31.785389,937.31,896.43,14.22
31.801016,944.39,899.73,16.54
31.816643,952.29,915.09,11.66
31.832270,952.77,921.25,15.24
31.847897,961.89,921.86,16.50
31.863524,967.91,927.59,10.47
31.879151,965.38,932.95,17.72
31.894778,959.77,931.39,16.01
31.910405,971.58,930.86,16.32
31.926032,958.82,924.19,12.19
31.941659,961.17,919.81,15.18
31.957286,958.19,912.85,14.40
31.972913,955.46,911.30,13.85
31.988540,941.23,906.93,14.61
32.004167,942.41,897.25,15.27
32.019794,935.93,893.68,18.37
32.035421,919.24,880.74,14.04
32.051048,923.67,872.78,16.61
32.066675,913.68,873.15,18.13
32.082302,911.72,866.26,16.55
32.097929,907.59,863.79,13.24
32.113556,907.22,852.69,16.29
32.129183,896.29,851.06,17.19
32.144811,901.52,851.19,17.35
32.160438,899.15,845.68,18.07
32.176065,892.92,838.71,17.22
32.191692,897.17,840.78,15.42
32.207319,883.74,833.84,12.91
32.222946,881.90,829.42,16.40
32.238573,888.00,836.83,18.41
32.254200,883.53,831.05,13.05
32.269827,881.01,825.23,15.89
32.285454,879.67,824.13,16.94
32.301081,873.87,823.84,12.81
32.316708,865.17,812.99,13.62
32.332335,862.98,813.82,15.04
32.347962,862.90,811.57,16.12
32.363589,864.22,809.82,9.66
32.379216,856.84,799.20,14.84
32.394843,855.61,796.35,16.40
32.410470,853.31,794.90,13.68
32.426097,852.03,792.45,15.61
32.441724,855.44,791.94,19.47
32.457351,855.46,796.65,14.45
32.472978,859.09,797.06,14.15
32.488605,856.79,804.21,11.26
32.504232,860.34,799.44,16.79
32.519859,870.52,806.41,13.89
32.535486,877.84,814.47,13.00
32.551113,879.27,828.45,13.60
32.566740,887.24,835.62,15.43
32.582367,891.45,842.73,13.28
32.597995,902.35,850.76,12.61
32.613622,914.18,862.31,14.77
32.629249,926.74,874.04,15.33
32.644876,933.02,886.88,16.34
32.660503,942.48,894.13,15.71
32.676130,946.31,905.50,11.00
32.691757,954.16,911.49,13.66
32.707384,957.80,920.69,10.43
32.723011,959.97,922.06,11.89
32.738638,968.34,932.97,15.93
32.754265,970.14,930.11,13.73
32.769892,967.10,937.85,15.14
32.785519,969.10,933.14,17.67
32.801146,963.65,929.03,15.70
32.816773,960.43,923.29,17.04
32.832400,958.57,918.12,12.83
32.848027,956.02,911.12,14.75
32.863654,950.58,903.44,16.89
32.879281,939.20,901.38,15.33
32.894908,936.55,893.52,16.35
32.910535,933.37,886.02,14.75
32.926162,927.76,878.95,14.71
32.941789,920.99,876.48,17.02
32.957416,916.11,866.01,19.34
32.973043,909.23,859.35,14.67
32.988670,908.97,854.58,16.96
33.004297,901.83,854.03,10.33
33.019924,897.99,847.37,17.25
33.035552,896.73,846.25,15.23
33.051179,895.99,837.75,17.27
33.066806,896.94,843.72,17.76
33.082433,891.77,838.28,13.54
33.098060,891.05,842.24,14.87
33.113687,887.91,832.09,14.74
33.129314,885.31,834.31,12.45
33.144941,884.10,831.53,16.42
33.160568,878.74,822.25,17.99
33.176195,881.76,824.24,13.59
33.191822,870.29,817.18,17.52
33.207449,870.31,816.41,15.70
33.223076,869.50,811.36,15.26
33.238703,860.52,809.33,14.75
33.254330,854.84,808.57,17.01
33.269957,863.46,800.21,16.99
33.285584,854.56,801.76,18.55
33.301211,853.39,795.51,13.54
33.316838,855.70,790.70,14.25
33.332465,851.10,794.00,12.61
33.348092,852.19,798.68,11.10
33.363719,860.05,801.86,16.53
33.379346,860.71,806.14,14.44
33.394973,871.90,806.26,15.93
33.410600,872.44,815.91,14.71
33.426227,873.87,822.32,17.03
33.441854,886.28,831.94,16.70
33.457481,891.11,841.72,13.91
33.473108,904.17,846.35,16.94
33.488736,915.66,864.08,15.10
33.504363,918.73,875.65,18.94
33.519990,927.23,878.98,14.01
33.535617,937.32,894.92,13.60
33.551244,945.06,901.93,17.24
33.566871,950.53,908.52,16.25
33.582498,960.14,920.19,12.50
33.598125,965.24,921.47,16.51
33.613752,966.79,924.78,11.56
33.629379,963.76,926.90,13.49
33.645006,969.86,930.50,14.62
33.660633,962.67,931.38,15.02
33.676260,967.78,928.55,13.68
33.691887,966.02,918.94,16.70
33.707514,961.60,917.61,11.21
33.723141,958.45,915.54,16.87
33.738768,954.59,909.97,18.75
33.754395,944.61,905.37,14.63
33.770022,941.55,896.62,14.92
33.785649,937.48,890.38,13.23
33.801276,929.72,878.75,16.33
33.816903,926.78,868.67,19.53
33.832530,915.10,865.79,16.36
33.848157,912.00,864.34,16.11
33.863784,904.05,854.33,16.68
33.879411,905.95,854.51,14.77
33.895038,903.77,851.13,17.43
33.910665,899.51,852.48,21.41
33.926292,899.16,847.21,15.24
33.941920,900.00,842.19,12.32
33.957547,891.29,841.20,15.27
33.973174,893.72,839.48,13.66
33.988801,891.91,840.57,17.08
34.004428,891.55,830.19,12.33
34.020055,886.20,832.47,16.39
34.035682,878.26,829.73,16.32
34.051309,881.38,826.56,15.03
34.066936,871.98,813.56,14.13
34.082563,875.30,815.81,11.76
34.098190,873.86,817.18,13.40
34.113817,870.34,813.86,18.41
34.129444,864.11,809.01,15.66
34.145071,859.88,799.46,16.65
34.160698,853.27,801.61,13.87
34.176325,855.60,800.10,13.83
34.191952,856.83,799.17,14.55
34.207579,853.65,802.64,12.68
34.223206,853.16,803.78,20.01
34.238833,858.04,792.69,12.64
34.254460,863.62,805.08,17.80
34.270087,866.76,805.16,16.66
34.285714,865.44,807.12,15.48
34.301341,872.94,813.42,13.55
34.316968,885.04,824.94,18.69
34.332595,888.34,830.12,16.64
34.348222,900.80,850.68,14.73
34.363849,908.01,857.81,14.48
34.379476,916.25,871.61,15.39
34.395104,926.01,877.82,12.26
34.410731,930.13,887.47,11.92
34.426358,943.72,897.76,14.49
34.441985,946.37,902.66,13.26
34.457612,953.38,913.76,13.89
34.473239,956.51,919.00,11.50
34.488866,970.73,920.95,14.75
34.504493,970.08,927.46,14.89
34.520120,967.69,927.42,14.41
34.535747,972.46,939.02,16.64
34.551374,969.51,934.24,14.67
34.567001,966.72,929.60,15.54
34.582628,968.55,926.32,17.96
34.598255,957.70,914.98,13.43
34.613882,955.79,913.90,15.08
34.629509,946.54,908.55,13.67
34.645136,946.08,896.97,12.98
34.660763,939.63,890.32,13.69
34.676390,935.33,887.88,18.30
34.692017,921.76,880.42,16.55
34.707644,921.48,872.94,16.32
34.723271,920.19,871.11,15.03
34.738898,915.54,865.30,16.90
34.754525,908.99,858.49,14.19
34.770152,907.17,856.42,14.17
34.785779,901.10,847.95,13.57
34.801406,898.27,846.37,15.38
34.817033,906.36,846.85,14.36
34.832661,897.28,841.77,14.24
34.848288,889.21,841.77,14.92
34.863915,889.42,839.41,17.26
34.879542,888.05,828.02,15.32
34.895169,884.94,832.19,17.29
34.910796,888.77,830.87,18.00
34.926423,877.23,828.18,13.50
34.942050,878.87,823.78,15.63
34.957677,875.92,819.06,11.62
34.973304,873.55,814.93,10.81
34.988931,868.01,809.46,12.07
35.004558,865.14,811.03,13.29
35.020185,864.99,802.83,12.06
35.035812,861.33,804.32,15.18
35.051439,860.24,799.08,13.45
35.067066,854.50,789.41,13.70
35.082693,858.45,801.19,15.25
35.098320,856.96,794.41,15.27
35.113947,857.26,792.66,15.36
35.129574,859.37,805.64,14.07
35.145201,860.04,805.32,14.23
35.160828,862.49,810.25,17.06
35.176455,871.97,814.44,13.72
35.192082,883.81,827.73,12.84
35.207709,887.26,839.51,15.18
35.223336,894.27,841.22,13.33
35.238963,905.05,851.19,13.99
35.254590,915.12,861.36,10.10
35.270217,922.44,871.07,14.20
35.285845,936.49,886.52,15.80
35.301472,941.06,893.11,13.49
35.317099,946.32,906.53,12.22
35.332726,957.95,911.77,14.44
35.348353,957.36,916.93,11.63
35.363980,970.51,921.80,16.63
35.379607,970.62,927.66,15.34
35.395234,971.47,928.65,13.46
35.410861,970.44,929.07,13.49
35.426488,965.39,930.25,16.90
35.442115,969.43,929.62,13.43
35.457742,962.27,920.93,16.14
35.473369,961.99,929.64,19.72
35.488996,957.49,918.50,19.62
35.504623,950.46,906.65,14.34
35.520250,952.97,903.65,16.28
35.535877,945.83,894.70,17.44
35.551504,930.75,886.74,14.99
35.567131,929.98,878.77,12.86
35.582758,919.96,875.40,13.07
35.598385,917.59,869.87,13.65
35.614012,917.05,864.47,10.29
35.629639,914.08,859.48,15.66
35.645266,907.55,853.32,14.53
35.660893,911.48,856.62,18.16
35.676520,896.72,848.14,18.73
35.692147,898.62,844.99,17.03
35.707774,899.05,841.77,15.04
35.723401,896.41,837.42,16.51
35.739029,890.48,835.53,11.84
35.754656,892.62,834.08,16.63
35.770283,890.07,832.13,14.43
35.785910,882.58,822.30,11.03
35.801537,878.83,831.71,12.56
35.817164,883.15,821.27,21.59
35.832791,879.54,823.44,14.67
35.848418,878.07,816.10,13.63
35.864045,874.34,811.17,15.88
35.879672,863.64,803.67,14.69
35.895299,865.03,806.32,13.59
35.910926,864.41,800.32,15.42
35.926553,859.77,794.32,10.92
35.942180,857.01,802.51,17.46
35.957807,862.20,795.81,13.48
35.973434,855.78,795.22,13.58
35.989061,856.44,800.42,17.68
36.004688,867.33,800.83,14.29
36.020315,862.18,800.30,14.34
36.035942,871.86,806.89,16.88
36.051569,868.07,811.87,13.35
36.067196,879.43,824.85,16.96
36.082823,881.65,828.72,13.63
36.098450,893.25,840.48,14.36
36.114077,898.82,847.40,14.81
36.129704,912.63,862.25,15.18
36.145331,919.40,870.72,15.12
36.160958,929.17,878.61,16.33
36.176585,939.48,889.00,15.01
36.192213,945.80,901.50,13.50
36.207840,945.65,907.82,18.05
36.223467,962.38,919.64,12.68
36.239094,959.69,923.52,16.35
36.254721,961.44,927.08,17.57
36.270348,968.89,926.30,17.80
36.285975,970.31,930.36,15.46
36.301602,971.67,927.64,13.34
36.317229,965.04,925.87,12.19
36.332856,969.34,928.79,17.44
36.348483,968.61,928.69,18.07
36.364110,963.99,921.27,12.96
36.379737,954.64,912.26,15.77
36.395364,951.52,905.80,13.23
36.410991,950.14,899.70,16.48
36.426618,937.87,892.11,15.89
36.442245,931.78,883.08,18.11
36.457872,926.38,876.17,18.56
36.473499,920.39,876.60,12.68
36.489126,914.91,869.56,18.36
36.504753,910.79,859.11,15.94
36.520380,909.17,860.77,15.77
36.536007,905.81,852.36,12.81
36.551634,908.06,853.74,12.71
36.567261,896.31,847.14,12.18
36.582888,900.72,839.64,13.66
36.598515,893.21,840.81,18.60
36.614142,897.22,842.63,16.06
36.629770,895.48,835.08,15.48
36.645397,888.73,835.21,11.90
36.661024,886.76,835.27,15.66
36.676651,885.84,829.40,14.43
36.692278,884.51,822.20,16.86
36.707905,878.36,823.81,14.93
36.723532,877.38,818.71,12.56
36.739159,873.52,813.88,15.93
36.754786,873.28,810.93,17.20
36.770413,868.77,811.65,14.22
36.786040,865.82,804.47,13.47
36.801667,865.90,801.47,11.70
36.817294,861.55,798.56,14.00
36.832921,860.12,798.68,11.83
36.848548,855.45,795.68,12.86
36.864175,856.11,795.12,13.79
36.879802,858.56,796.38,15.05
36.895429,857.11,798.36,11.23
36.911056,864.59,809.45,17.27
36.926683,869.74,813.49,16.42
36.942310,877.32,819.97,14.16
36.957937,884.20,832.06,17.17
36.973564,890.47,831.38,13.45
36.989191,897.76,845.70,17.54
37.004818,908.95,855.17,19.68
37.020445,917.08,865.82,12.96
37.036072,921.83,877.62,13.93
37.051699,935.75,890.74,15.17
37.067326,942.08,898.77,14.57
37.082954,943.66,897.20,13.70
37.098581,954.99,908.81,17.77
37.114208,960.19,915.02,15.53
37.129835,963.99,927.76,12.55
37.145462,971.02,933.70,12.83
37.161089,970.69,932.95,15.09
37.176716,967.48,930.06,19.06
37.192343,972.02,930.37,17.22
37.207970,971.37,929.24,11.40
37.223597,965.40,929.41,14.01
37.239224,959.92,919.63,13.92
37.254851,958.29,909.42,17.56
37.270478,952.64,904.32,16.12
37.286105,948.92,905.07,14.42
37.301732,941.93,894.77,17.47
37.317359,934.74,886.30,13.01
37.332986,933.86,880.37,14.93
37.348613,917.64,873.02,11.05
37.364240,921.18,867.84,12.65
37.379867,920.08,864.65,14.51
37.395494,909.09,856.89,17.01
37.411121,910.19,853.55,14.31
37.426748,902.94,855.49,15.65
37.442375,896.26,845.26,11.98
37.458002,898.67,848.49,17.58
37.473629,895.98,840.22,14.59
37.489256,894.72,843.10,13.74
37.504883,895.39,835.57,14.06
37.520510,890.31,834.03,12.39
37.536138,888.20,833.17,16.65
37.551765,889.14,832.04,17.57
37.567392,888.85,825.06,14.35
37.583019,878.23,828.53,13.79
37.598646,871.97,817.71,14.55
37.614273,877.33,813.04,15.65
37.629900,864.55,815.11,15.43
37.645527,868.64,807.26,18.16
37.661154,863.23,809.43,11.45
37.676781,865.40,804.00,17.44
37.692408,856.25,796.39,12.54
37.708035,861.06,792.68,14.40
37.723662,856.85,800.41,15.98
37.739289,859.51,794.17,13.17
37.754916,858.11,802.21,13.72
37.770543,858.91,801.11,12.90
37.786170,867.21,804.45,12.75
37.801797,860.61,809.27,16.48
37.817424,875.31,809.52,14.50
37.833051,874.19,819.94,14.92
37.848678,889.02,830.78,16.26
37.864305,900.28,840.58,15.12
37.879932,900.22,852.25,11.62
37.895559,912.56,859.70,17.40
37.911186,924.82,875.49,10.83
37.926813,928.99,881.92,12.95
37.942440,936.57,893.84,13.27
37.958067,948.75,897.46,14.81
37.973694,952.72,913.05,14.98
37.989322,959.67,920.39,16.14
38.004949,965.09,921.55,12.86
38.020576,968.45,929.45,13.26
38.036203,969.40,931.52,15.99
38.051830,970.83,932.36,16.21
38.067457,971.31,929.10,15.22
38.083084,968.63,929.53,16.33
38.098711,966.58,922.19,15.16
38.114338,967.58,921.30,12.83
38.129965,959.25,913.85,15.17
38.145592,953.85,914.61,16.98
38.161219,948.81,912.80,16.30
38.176846,941.62,896.40,16.36
38.192473,935.18,894.51,12.36
38.208100,927.14,880.86,12.63
38.223727,933.60,878.34,16.26
38.239354,925.88,870.35,12.78
38.254981,918.02,865.05,12.53
38.270608,914.81,858.63,17.78
38.286235,905.21,854.42,15.03
38.301862,908.23,856.35,12.04
38.317489,905.67,849.37,14.20
38.333116,899.91,841.64,14.44
38.348743,898.00,842.70,13.38
38.364370,889.86,842.95,16.34
38.379997,892.90,840.82,10.85
38.395624,889.74,839.43,14.62
38.411251,888.30,833.43,15.30
38.426878,887.45,831.98,16.65
38.442506,893.54,827.92,16.02
38.458133,878.22,822.52,16.43
38.473760,876.69,819.56,15.26
38.489387,879.69,817.39,15.01
38.505014,871.42,815.69,15.55
38.520641,863.54,813.49,13.06
38.536268,868.57,805.42,16.68
38.551895,867.26,804.20,14.66
38.567522,859.77,800.58,15.45
38.583149,858.10,794.05,18.75
38.598776,859.80,794.08,15.23
38.614403,858.39,791.82,12.38
38.630030,862.77,789.94,15.94
38.645657,862.11,794.40,12.88
38.661284,869.62,800.72,17.21
38.676911,870.09,808.80,16.79
38.692538,872.63,809.98,15.69
38.708165,874.96,820.48,14.02
38.723792,889.53,824.33,13.67
38.739419,891.72,835.75,12.10
38.755046,898.85,845.25,14.49
38.770673,905.22,858.98,17.40
38.786300,918.07,864.47,12.57
38.801927,928.28,876.34,18.38
38.817554,930.03,889.75,13.53
38.833181,942.19,894.85,14.32
38.848808,953.26,907.30,13.64
38.864435,961.49,915.80,12.70
38.880063,956.95,921.75,18.59
38.895690,963.20,926.07,14.67
38.911317,971.56,924.98,15.89
38.926944,971.25,930.41,14.29
38.942571,975.41,929.47,12.97
38.958198,969.48,926.54,16.53
38.973825,970.83,928.68,17.52
38.989452,965.52,924.33,16.97
39.005079,963.21,918.85,14.82
39.020706,957.17,916.18,15.52
39.036333,948.04,906.58,15.81
39.051960,955.83,897.10,15.48
39.067587,944.31,896.66,17.03
39.083214,928.05,885.42,13.85
39.098841,925.83,877.56,13.81
39.114468,926.87,875.94,14.87
39.130095,919.02,866.74,14.41
39.145722,910.10,859.83,15.12
39.161349,906.74,854.16,17.94
39.176976,909.77,855.05,15.77
39.192603,908.59,848.09,16.03
39.208230,896.37,848.08,17.31
39.223857,896.97,845.78,16.79
39.239484,898.60,838.92,16.21
39.255111,891.97,836.71,17.00
39.270738,894.18,832.95,14.29
39.286365,889.53,831.18,15.04
39.301992,891.04,832.85,15.03
39.317619,886.78,829.69,16.63
39.333247,885.16,818.42,19.27
39.348874,875.96,822.71,15.73
39.364501,882.30,815.32,12.12
39.380128,869.70,810.56,14.93
39.395755,869.14,810.48,16.02
39.411382,864.48,805.27,16.32
39.427009,857.64,802.84,14.93
39.442636,866.41,795.78,14.93
39.458263,858.98,794.45,14.90
39.473890,861.08,799.58,16.33
39.489517,863.08,796.70,13.48
39.505144,852.67,790.84,17.27
39.520771,859.26,796.03,15.56
39.536398,858.57,798.98,14.50
39.552025,863.52,805.98,16.18
39.567652,872.18,802.88,17.01
39.583279,876.60,813.89,13.87
39.598906,880.39,832.19,13.37
39.614533,887.39,836.17,14.82
39.630160,899.24,852.95,13.69
39.645787,909.89,852.97,17.05
39.661414,914.49,861.42,16.97
39.677041,921.42,874.16,12.70
39.692668,931.64,881.42,15.19
39.708295,941.17,895.88,17.69
39.723922,952.16,903.31,15.49
39.739549,950.70,914.47,11.59
39.755176,963.60,915.88,15.18
39.770803,967.83,923.91,14.43
39.786431,969.30,928.32,14.82
39.802058,966.35,927.98,16.17
39.817685,968.72,925.83,12.60
39.833312,968.81,922.94,17.84
39.848939,973.47,929.39,14.13
39.864566,962.64,929.83,18.42
39.880193,960.77,917.91,13.00
39.895820,957.88,913.09,16.01
39.911447,950.82,906.35,15.46
39.927074,947.53,897.01,15.78
39.942701,939.46,898.71,13.09
39.958328,935.19,885.01,12.22
39.973955,930.55,881.10,13.67
39.989582,923.24,874.75,17.08
40.005209,924.42,865.27,18.16
40.020836,908.14,859.66,12.29
40.036463,913.60,857.73,17.51
40.052090,903.06,851.74,13.82
40.067717,903.40,848.10,15.68
40.083344,904.47,843.40,18.31
40.098971,900.99,842.82,16.37
40.114598,896.70,840.69,15.40
40.130225,890.51,837.27,13.12
40.145852,894.50,834.54,16.89
40.161479,891.14,830.21,16.42
40.177106,885.79,827.73,16.33
40.192733,887.54,827.05,17.34
40.208360,880.21,820.33,16.04
40.223987,879.28,823.77,18.13
40.239615,878.21,815.01,16.10
40.255242,873.67,811.42,11.06
40.270869,866.16,811.29,16.65
40.286496,868.87,807.79,10.89
40.302123,861.35,808.00,15.69
40.317750,859.44,805.60,13.61
40.333377,854.79,797.13,18.18
40.349004,857.64,801.25,12.57
40.364631,856.77,795.23,16.96
40.380258,852.08,793.19,18.06
40.395885,852.19,799.55,13.94
40.411512,858.93,799.03,13.92
40.427139,860.58,804.17,20.07
40.442766,870.55,805.25,16.31
40.458393,868.85,809.99,14.61
40.474020,872.23,819.33,17.31
40.489647,889.98,828.12,13.23
40.505274,891.21,837.57,12.43
40.520901,900.03,846.54,15.87
40.536528,914.51,857.44,15.52
40.552155,915.83,868.48,17.44
40.567782,922.60,877.01,16.94
40.583409,942.87,892.34,17.91
40.599036,941.24,898.57,17.07
40.614663,953.91,902.26,15.59
40.630290,957.90,917.84,16.84
40.645917,960.58,918.07,15.86
40.661544,963.76,926.24,14.91
40.677172,971.45,931.56,16.30
40.692799,971.04,925.19,19.31
40.708426,966.92,930.97,13.13
40.724053,968.20,928.64,14.11
40.739680,970.65,922.89,17.55
40.755307,964.99,919.96,16.77
40.770934,956.62,920.00,17.79
40.786561,953.01,908.84,11.94
40.802188,949.96,901.55,10.61
40.817815,947.59,897.37,15.47
40.833442,933.56,888.93,13.98
40.849069,929.58,883.79,13.11
40.864696,926.21,875.38,13.46
40.880323,915.23,871.40,14.79
40.895950,913.08,862.78,15.84
40.911577,908.88,861.63,13.79
40.927204,907.49,855.71,17.09
40.942831,907.61,851.42,15.78
40.958458,903.59,848.09,16.42
40.974085,899.22,845.93,16.50
40.989712,900.35,841.08,12.73
41.005339,893.56,837.86,12.42
41.020966,891.46,837.57,15.93
41.036593,892.99,832.93,15.54
41.052220,884.42,834.34,15.58
41.067847,883.50,827.38,11.58
41.083474,883.40,819.98,15.31
41.099101,880.41,827.47,13.29
41.114728,875.45,814.76,14.21
41.130356,872.74,816.76,14.96
41.145983,870.90,807.88,14.08
41.161610,866.95,802.24,15.39
41.177237,863.12,803.23,14.97
41.192864,859.53,797.57,18.25
41.208491,855.59,800.01,14.70
41.224118,855.85,791.03,13.49
41.239745,859.21,794.86,15.14
41.255372,858.46,794.11,16.47
41.270999,850.52,792.77,15.85
41.286626,856.90,797.76,15.61
41.302253,860.32,795.42,13.58
41.317880,856.85,802.49,13.36
41.333507,873.83,808.76,10.62
41.349134,874.64,810.07,14.78
41.364761,874.48,824.86,15.38
41.380388,888.37,829.93,11.05
41.396015,901.71,834.83,16.56
41.411642,903.49,847.89,10.88
41.427269,918.00,859.61,16.41
41.442896,923.05,875.97,19.00
41.458523,935.09,884.73,15.44
41.474150,942.05,892.49,13.74
41.489777,944.65,902.48,13.05
41.505404,954.38,904.56,13.10
41.521031,959.09,913.39,15.71
41.536658,955.97,921.54,17.98
41.552285,965.29,923.68,15.94
41.567912,966.29,923.90,12.96
41.583540,966.05,926.89,14.27
41.599167,962.49,926.58,17.84
41.614794,971.79,926.18,18.12
41.630421,958.92,921.97,15.01
41.646048,964.51,918.22,13.18
41.661675,949.59,909.46,13.68
41.677302,947.92,904.71,16.54
41.692929,948.13,899.58,16.16
41.708556,939.70,895.67,12.04
41.724183,923.77,882.89,12.26
41.739810,931.23,871.53,15.42
41.755437,923.15,869.70,13.55
41.771064,917.33,865.01,12.30
41.786691,913.78,859.85,14.86
41.802318,905.36,852.04,13.25
41.817945,900.14,853.00,16.61
41.833572,904.30,847.52,15.09
41.849199,896.60,842.54,16.02
41.864826,895.52,840.94,17.06
41.880453,889.93,838.64,17.00
41.896080,889.59,833.81,13.40
41.911707,890.64,831.66,14.29
41.927334,884.77,833.71,15.54
41.942961,883.07,826.82,15.27
41.958588,882.42,822.67,15.42
41.974215,881.03,819.58,15.63
41.989842,873.96,821.84,15.61
42.005469,871.60,814.37,13.46
42.021096,867.96,807.67,15.54
42.036724,872.45,806.24,16.91
42.052351,866.00,805.55,13.20
42.067978,865.62,800.72,19.39
42.083605,860.58,791.22,12.92
42.099232,856.12,793.27,12.47
42.114859,848.97,792.60,14.22
42.130486,851.16,792.49,17.29
42.146113,851.50,785.64,17.20
42.161740,855.89,793.89,14.06
42.177367,862.15,795.24,14.05
42.192994,860.26,801.49,11.94
42.208621,865.14,802.18,13.83
42.224248,870.55,812.93,11.73
42.239875,876.01,818.72,15.47
42.255502,882.90,827.99,12.01
42.271129,895.36,831.63,13.72
42.286756,899.85,846.19,15.66
42.302383,914.43,858.74,15.09
42.318010,919.78,864.83,13.22
42.333637,928.10,877.35,17.60
42.349264,933.03,891.54,15.27
42.364891,943.39,897.46,15.66
42.380518,948.59,900.84,13.17
42.396145,957.66,914.71,14.86
42.411772,964.85,914.33,15.06
42.427399,963.51,922.91,12.18
42.443026,964.10,926.56,20.60
42.458653,971.28,926.30,15.73
42.474281,965.86,922.45,17.31
42.489908,963.04,918.60,14.73
42.505535,960.94,915.20,15.26
42.521162,956.66,915.76,15.04
42.536789,952.32,910.10,16.58
42.552416,946.59,905.71,15.24
42.568043,948.69,900.15,15.44
42.583670,933.08,890.13,11.90
42.599297,937.53,880.43,16.09
42.614924,929.49,875.58,19.89
42.630551,918.72,872.36,15.59
42.646178,915.49,863.60,17.55
42.661805,915.98,855.12,14.99
42.677432,908.47,852.97,15.23
42.693059,897.90,853.47,13.70
42.708686,899.55,846.26,14.87
42.724313,897.62,842.99,18.45
42.739940,894.85,841.55,15.48
42.755567,891.08,839.62,16.72
42.771194,888.29,830.42,13.55
42.786821,894.98,834.66,15.08
42.802448,881.14,831.65,17.77
42.818075,887.30,828.85,18.32
42.833702,887.70,828.00,13.61
42.849329,875.10,820.84,18.34
42.864956,879.94,816.25,17.49
42.880583,876.46,816.27,12.28
42.896210,872.60,810.78,17.48
42.911837,862.58,805.47,14.03
42.927465,859.14,806.16,15.02
42.943092,860.80,800.84,11.57
42.958719,864.65,791.65,14.98
42.974346,855.66,797.56,15.68
42.989973,861.25,787.28,17.05
43.005600,849.53,794.38,18.39
43.021227,852.86,787.96,13.77
43.036854,852.25,792.36,13.13
43.052481,856.05,790.45,15.59
43.068108,858.56,794.60,17.60
43.083735,861.96,798.29,13.72
43.099362,862.53,806.75,11.92
43.114989,873.45,808.28,15.06
43.130616,885.60,823.08,12.94
43.146243,882.74,829.81,12.60
43.161870,896.56,839.99,11.29
43.177497,902.76,856.35,15.41
43.193124,914.58,863.58,14.00
43.208751,925.23,871.90,15.83
43.224378,928.12,887.79,13.20
43.240005,941.16,887.81,13.11
43.255632,949.32,905.63,14.08
43.271259,951.84,912.19,15.89
43.286886,956.49,910.39,13.74
43.302513,964.13,919.07,16.92
43.318140,962.23,923.00,9.94
43.333767,963.54,921.18,16.58
43.349394,967.32,922.01,15.10
43.365021,959.44,920.72,13.26
43.380649,962.87,917.73,15.76
43.396276,955.30,918.18,12.85
43.411903,961.07,913.19,12.52
43.427530,949.77,907.34,16.66
43.443157,948.12,900.12,20.19
43.458784,940.72,894.55,16.40
43.474411,930.65,885.12,14.85
43.490038,929.61,878.22,15.54
43.505665,916.24,870.83,15.87
43.521292,913.20,861.47,13.79
43.536919,913.00,855.44,14.52
43.552546,906.32,855.08,14.48
43.568173,904.00,845.66,8.80
43.583800,901.60,844.47,14.30
43.599427,896.53,841.04,13.87
43.615054,893.72,842.63,16.28
43.630681,896.02,833.91,17.79
43.646308,889.06,835.12,11.47
43.661935,891.09,831.58,16.86
43.677562,887.65,827.56,17.18
43.693189,882.18,828.36,16.99
43.708816,885.63,823.30,18.70
43.724443,877.96,821.21,17.43
43.740070,882.34,819.21,14.66
43.755697,869.88,808.30,16.40
43.771324,865.66,812.89,17.72
43.786951,860.20,811.53,12.61
43.802578,858.99,803.45,14.95
43.818205,858.71,799.61,14.32
43.833833,858.76,796.48,13.28
43.849460,851.55,788.69,16.49
43.865087,848.56,793.26,13.97
43.880714,858.57,785.19,14.21
43.896341,852.60,789.39,11.20
43.911968,849.84,793.04,13.52
43.927595,853.35,788.92,16.46
43.943222,851.90,792.27,16.91
43.958849,856.52,796.69,15.82
43.974476,859.66,798.53,14.08
43.990103,867.98,806.45,15.30
44.005730,876.76,815.29,17.96
44.021357,880.49,827.59,14.21
44.036984,894.91,834.45,17.78
44.052611,904.16,849.48,16.38
44.068238,913.68,858.00,15.28
44.083865,922.52,869.12,15.22
44.099492,921.06,876.55,9.96
44.115119,930.00,883.35,17.28
44.130746,938.79,895.88,15.20
44.146373,953.03,906.21,12.40
44.162000,953.48,909.15,14.18
44.177627,957.57,916.15,14.00
44.193254,961.76,923.42,14.25
44.208881,966.01,922.32,16.61
44.224508,968.80,915.03,14.71
44.240135,963.52,919.80,12.84
44.255762,955.97,919.11,13.69
44.271390,959.81,917.27,12.67
44.287017,952.62,909.84,16.67
44.302644,946.07,908.02,15.84
44.318271,945.56,900.69,15.76
44.333898,939.36,892.76,14.98
44.349525,930.02,886.86,18.22
44.365152,925.67,883.43,13.11
44.380779,921.85,875.72,14.06
44.396406,915.23,865.62,12.72
44.412033,911.39,861.42,14.10
44.427660,902.57,852.74,14.70
44.443287,900.48,851.49,16.24
44.458914,903.15,841.73,12.36
44.474541,895.12,840.46,14.64
44.490168,889.25,843.10,17.62
44.505795,895.91,837.75,13.71
44.521422,892.65,832.12,13.51
44.537049,886.39,834.58,13.08
44.552676,882.65,832.11,15.57
44.568303,880.77,825.29,14.48
44.583930,875.05,819.16,12.35
44.599557,872.28,823.88,16.78
44.615184,875.84,820.07,14.73
44.630811,870.31,816.90,12.37
44.646438,873.75,812.21,14.14
44.662065,864.81,806.77,14.08
44.677692,864.01,806.46,12.86
44.693319,860.37,799.07,15.75
44.708946,857.26,797.41,16.22
44.724574,856.01,793.81,12.37
44.740201,854.07,794.22,12.88
44.755828,846.45,789.53,15.38
44.771455,847.40,786.71,14.10
44.787082,846.08,791.46,15.38
44.802709,844.26,778.75,12.39
44.818336,854.97,793.37,15.95
44.833963,857.93,791.03,15.65
44.849590,859.59,800.94,14.52
44.865217,863.45,803.45,14.70
44.880844,870.12,813.56,18.50
44.896471,877.22,823.05,12.21
44.912098,881.80,823.12,14.36
44.927725,898.61,837.56,14.00
44.943352,901.50,848.08,13.95
44.958979,914.31,858.45,11.97
44.974606,920.97,867.73,14.53
44.990233,929.84,882.38,16.47
45.005860,936.85,890.37,16.39
45.021487,944.90,899.74,17.70
45.037114,953.17,909.23,16.01
45.052741,950.05,911.95,14.89
45.068368,954.76,911.33,13.52
45.083995,960.84,916.74,15.38
45.099622,963.54,920.80,16.57
45.115249,957.35,919.67,13.60
45.130876,960.76,918.02,17.40
45.146503,955.74,913.76,13.25
45.162130,955.98,914.21,15.99
45.177758,951.92,900.77,14.48
45.193385,944.24,903.60,17.11
45.209012,943.30,896.99,14.24
45.224639,932.58,885.87,14.41
45.240266,927.02,880.27,15.72
45.255893,922.86,874.79,15.52
45.271520,918.80,872.03,13.39
45.287147,912.28,862.57,17.17
45.302774,908.22,854.33,15.77
45.318401,897.79,852.89,14.52
45.334028,895.41,849.60,15.04
45.349655,900.58,838.78,15.71
45.365282,889.34,842.94,9.21
45.380909,889.09,837.47,12.68
45.396536,886.19,836.12,17.31
45.412163,889.80,830.06,16.86
45.427790,877.71,836.33,15.47
45.443417,881.02,828.64,15.89
45.459044,876.51,819.41,12.65
45.474671,876.78,821.96,12.37
45.490298,876.21,819.39,12.78
45.505925,873.15,813.81,14.80
45.521552,869.01,812.80,13.61
45.537179,862.37,807.34,13.37
45.552806,867.91,803.26,14.95
45.568433,857.23,799.72,15.55
45.584060,853.74,791.89,14.63
45.599687,857.88,791.15,14.19
45.615314,848.86,789.68,14.71
45.630942,850.64,788.94,16.59
45.646569,852.95,785.35,16.75
45.662196,843.24,781.33,12.27
45.677823,850.17,790.58,15.10
45.693450,845.24,786.21,14.65
45.709077,850.82,791.62,13.85
45.724704,851.54,798.32,16.40
45.740331,852.63,803.69,16.48
45.755958,855.73,802.54,18.22
45.771585,873.88,814.76,13.25
45.787212,872.69,819.87,13.09
45.802839,888.53,828.58,15.72
45.818466,899.40,844.34,15.16
45.834093,899.66,854.89,13.87
45.849720,908.95,859.19,16.04
45.865347,922.47,877.85,12.06
45.880974,931.76,882.74,16.19
45.896601,933.44,887.29,15.70
45.912228,943.03,898.03,15.65
45.927855,947.23,907.77,16.29
45.943482,953.29,908.38,15.14
45.959109,957.81,915.88,14.78
45.974736,956.25,923.62,15.85
45.990363,956.02,917.71,15.40
46.005990,961.14,916.15,13.64
46.021617,956.43,918.12,16.18
46.037244,950.65,913.39,14.89
46.052871,949.55,910.59,14.17
46.068499,947.86,910.12,15.25
46.084126,937.75,899.80,15.62
46.099753,935.38,895.70,15.95
46.115380,934.13,887.80,12.89
46.131007,930.92,879.33,16.30
46.146634,923.93,877.90,16.44
46.162261,913.82,865.24,15.93
46.177888,905.31,853.84,10.24
46.193515,904.53,857.31,16.66
46.209142,902.91,849.26,14.53
46.224769,893.98,845.28,15.23
46.240396,895.01,840.41,15.73
46.256023,891.14,832.65,13.83
46.271650,889.82,829.81,16.32
46.287277,881.96,826.09,10.89
46.302904,883.84,826.29,15.63
46.318531,880.52,831.38,14.45
46.334158,884.66,824.69,17.14
46.349785,874.59,823.48,9.69
46.365412,876.19,822.03,12.31
46.381039,872.04,814.73,14.71
46.396666,873.72,808.41,17.72
46.412293,868.23,811.29,13.06
46.427920,867.94,809.03,14.63
46.443547,855.41,800.27,15.54
46.459174,860.09,795.60,16.06
46.474801,859.15,791.95,16.08
46.490428,848.88,791.52,16.95
46.506055,853.77,786.60,12.89
46.521683,848.56,782.87,16.16
46.537310,848.70,783.89,15.25
46.552937,846.38,780.26,10.44
46.568564,847.45,785.49,17.39
46.584191,843.60,783.35,16.17
46.599818,847.73,789.44,10.37
46.615445,853.05,790.96,16.11
46.631072,853.24,802.39,15.06
46.646699,865.44,808.24,16.54
46.662326,871.61,814.85,16.56
46.677953,877.19,823.75,16.62
46.693580,887.19,830.11,12.08
46.709207,891.88,842.34,12.46
46.724834,898.11,854.05,14.47
46.740461,916.65,867.81,12.85
46.756088,918.00,875.74,17.06
46.771715,931.90,878.29,10.62
46.787342,938.91,888.38,17.41
46.802969,947.89,900.19,15.77
46.818596,950.06,903.81,11.67
46.834223,951.01,913.86,14.19
46.849850,950.69,914.87,14.91
46.865477,953.63,915.84,15.04
46.881104,960.34,921.00,13.83
46.896731,957.91,919.20,13.93
46.912358,957.87,914.63,14.55
46.927985,952.70,912.82,16.88
46.943612,953.84,910.04,13.98
46.959239,944.96,899.77,16.12
46.974867,939.17,891.49,11.46
46.990494,928.96,888.10,12.17
47.006121,929.17,882.40,16.31
47.021748,922.99,880.18,14.18
47.037375,915.96,866.69,11.93
47.053002,909.00,865.60,19.10
47.068629,908.17,854.84,16.79
47.084256,905.79,850.94,12.64
47.099883,896.74,845.90,15.89
47.115510,890.48,843.20,13.80
47.131137,894.98,835.42,14.31
47.146764,889.86,838.10,14.69
47.162391,882.61,829.11,13.40
47.178018,883.06,830.85,19.33
47.193645,874.17,823.99,18.94
47.209272,883.21,824.97,16.54
47.224899,875.02,822.03,16.18
47.240526,870.74,820.10,10.47
47.256153,871.31,818.81,17.81
47.271780,863.01,816.14,13.50
47.287407,867.04,813.61,16.65
47.303034,864.22,805.69,17.84
47.318661,861.95,809.46,15.26
47.334288,856.82,804.14,15.63
47.349915,851.28,801.21,14.25
47.365542,846.18,794.10,15.68
47.381169,850.12,787.56,12.98
47.396796,844.70,786.07,18.16
47.412423,843.71,783.45,15.54
47.428051,847.37,786.14,18.91
47.443678,842.46,783.93,16.61
47.459305,841.25,786.17,14.58
47.474932,844.61,789.07,14.42
47.490559,844.91,786.34,15.17
47.506186,849.81,792.56,12.80
47.521813,854.54,790.22,15.92
47.537440,864.19,807.36,11.95
47.553067,868.44,807.97,13.79
47.568694,875.12,828.10,18.05
47.584321,886.42,828.93,16.79
47.599948,891.60,838.68,14.76
47.615575,897.69,851.06,16.14
47.631202,909.55,866.76,13.69
47.646829,918.28,873.28,14.46
47.662456,924.73,877.90,14.06
47.678083,935.67,886.00,11.49
47.693710,945.28,897.55,15.82
47.709337,945.90,908.67,12.49
47.724964,952.59,907.95,16.33
47.740591,955.63,918.62,13.49
47.756218,951.13,916.40,17.88
47.771845,953.77,918.12,15.06
47.787472,951.28,914.12,12.18
47.803099,959.02,908.00,16.95
47.818726,948.72,908.96,15.53
47.834353,947.71,907.80,12.99
47.849980,946.62,902.62,16.99
47.865608,941.49,892.42,14.23
47.881235,929.91,889.69,14.42
47.896862,923.47,881.55,16.83
47.912489,920.50,878.43,18.38
47.928116,916.73,872.79,14.22
47.943743,914.06,858.05,13.13
47.959370,904.48,859.18,16.65
47.974997,900.59,848.02,15.06
47.990624,897.96,849.28,14.32
48.006251,889.21,840.67,17.65
48.021878,895.45,836.62,13.42
48.037505,890.20,834.29,15.82
48.053132,880.63,831.04,12.10
48.068759,885.80,828.73,16.47
48.084386,882.26,823.13,17.50
48.100013,880.27,822.21,17.02
48.115640,877.83,822.78,15.14
48.131267,871.79,814.88,15.41
48.146894,864.45,811.95,14.15
48.162521,870.44,821.38,13.77
48.178148,869.70,811.25,15.14
48.193775,860.98,802.88,10.23
48.209402,860.30,803.38,15.89
48.225029,856.26,798.47,12.13
48.240656,850.09,791.87,15.04
48.256283,853.84,795.27,17.49
48.271910,849.43,790.44,12.83
48.287537,843.35,780.37,16.34
48.303164,846.07,782.91,15.68
48.318792,843.91,786.08,12.23
48.334419,839.99,785.93,15.55
48.350046,843.77,783.21,15.83
48.365673,841.19,782.15,11.18
48.381300,849.30,786.50,13.05
48.396927,852.65,793.29,17.05
48.412554,858.22,801.01,14.48
48.428181,863.79,802.60,12.35
48.443808,869.68,814.05,15.05
48.459435,878.73,820.27,13.44
48.475062,885.02,828.87,12.78
48.490689,892.85,840.29,13.93
48.506316,903.49,847.13,14.72
48.521943,905.49,862.50,16.07
48.537570,921.36,873.14,15.25
48.553197,922.72,885.82,14.84
48.568824,931.72,887.85,15.59
48.584451,941.72,899.94,14.40
48.600078,946.75,907.44,17.48
48.615705,949.18,913.24,18.69
48.631332,955.14,913.06,13.05
48.646959,959.71,910.62,15.68
48.662586,956.05,915.57,16.37
48.678213,956.20,912.42,15.07
48.693840,951.84,912.25,14.24
48.709467,949.77,916.00,17.54
48.725094,947.22,911.37,15.33
48.740721,943.47,906.74,10.74
48.756348,942.21,893.30,11.97
48.771976,931.03,892.64,18.24
48.787603,918.05,880.16,16.07
48.803230,918.87,872.39,17.08
48.818857,913.32,874.52,19.12
48.834484,911.74,863.73,16.40
48.850111,903.34,855.21,14.43
48.865738,899.96,847.34,13.01
48.881365,896.29,843.33,16.05
48.896992,892.35,840.77,14.54
48.912619,885.82,836.14,13.37
48.928246,890.10,836.10,14.81
48.943873,878.16,830.37,16.20
48.959500,875.99,828.10,13.81
48.975127,878.30,829.06,16.41
48.990754,883.63,822.19,15.98
49.006381,874.05,822.38,17.56
49.022008,866.61,819.98,18.95
49.037635,870.23,812.04,16.20
49.053262,865.75,815.92,16.86
49.068889,864.74,812.43,14.76
49.084516,856.55,804.97,16.46
49.100143,850.95,799.73,16.99
49.115770,851.64,796.51,14.03
49.131397,851.75,798.97,15.19
49.147024,850.37,791.50,15.30
49.162651,850.32,789.06,16.49
49.178278,838.82,785.82,13.97
49.193905,838.94,785.58,14.60
49.209532,842.96,783.04,13.77
49.225160,842.67,783.15,16.26
49.240787,839.78,780.92,13.54
49.256414,842.88,782.34,16.25
49.272041,842.33,787.32,15.54
49.287668,843.34,792.24,18.67
49.303295,854.64,797.07,14.46
49.318922,859.72,808.23,13.26
49.334549,864.42,813.80,12.54
49.350176,873.57,824.45,17.04
49.365803,881.59,831.22,17.66
49.381430,892.51,840.77,15.35
49.397057,899.22,853.11,17.93
49.412684,911.13,864.17,14.04
49.428311,915.49,873.52,15.45
49.443938,928.27,875.41,12.42
49.459565,932.52,892.35,14.69
49.475192,937.90,898.02,15.48
49.490819,944.98,907.02,12.00
49.506446,948.77,903.93,16.72
49.522073,957.03,915.08,15.44
49.537700,953.30,918.35,14.06
49.553327,955.27,910.63,18.16
49.568954,955.92,905.61,15.97
49.584581,949.45,914.00,15.72
49.600208,947.95,914.44,15.24
49.615835,948.53,902.57,14.39
49.631462,943.46,894.66,18.28
49.647089,936.23,893.34,12.76
49.662716,932.77,893.82,17.45
49.678344,927.58,884.08,15.93
49.693971,914.63,869.66,17.17
49.709598,921.35,869.18,16.34
49.725225,907.84,859.87,14.25
49.740852,900.91,856.09,15.74
49.756479,892.93,849.84,17.57
49.772106,892.32,842.61,14.15
49.787733,885.67,843.48,13.78
49.803360,889.23,831.62,17.78
49.818987,882.43,836.61,15.51
49.834614,881.70,834.24,12.49
49.850241,879.14,828.98,13.51
49.865868,878.52,822.27,17.46
49.881495,874.81,820.40,15.83
49.897122,871.73,815.97,12.41
49.912749,870.75,814.56,14.61
49.928376,867.29,815.74,15.29
49.944003,868.80,810.27,12.50
49.959630,866.12,806.82,15.82
49.975257,862.81,804.90,13.80
49.990884,858.04,801.73,15.15
50.006511,857.95,794.27,19.65
50.022138,855.67,794.36,15.17
50.037765,853.87,788.49,15.89
50.053392,845.18,788.96,16.03
50.069019,842.11,785.41,13.09
50.084646,841.91,780.15,13.72
50.100273,842.39,783.56,19.18
50.115901,835.90,785.49,19.06
50.131528,833.57,777.15,16.58
50.147155,840.86,778.86,12.87
50.162782,844.19,787.71,15.32
50.178409,845.45,790.35,17.18
50.194036,851.90,798.19,14.11
50.209663,856.81,799.49,15.60
50.225290,860.57,807.97,11.64
50.240917,873.65,817.21,14.60
50.256544,883.18,831.88,14.55
50.272171,888.69,838.59,17.26
50.287798,895.63,850.06,15.93
50.303425,900.86,863.73,14.04
50.319052,912.79,867.81,12.70
50.334679,923.26,881.75,15.76
50.350306,932.84,888.39,12.77
50.365933,935.20,890.50,18.10
50.381560,942.53,906.02,14.90
50.397187,943.45,909.87,13.78
50.412814,948.81,915.42,13.03
50.428441,956.84,912.42,14.07
50.444068,957.04,912.55,16.38
50.459695,954.91,909.06,13.35
50.475322,953.40,910.64,15.14
50.490949,947.98,916.30,10.77
50.506576,941.78,906.00,12.85
50.522203,938.53,898.91,16.37
50.537830,931.62,894.75,15.05
50.553457,933.68,881.59,15.62
50.569085,926.12,882.48,14.53
50.584712,914.38,878.05,15.32
50.600339,911.27,865.77,15.75
50.615966,905.37,864.80,15.75
50.631593,902.94,852.29,17.09
50.647220,895.77,848.42,14.75
50.662847,891.80,845.97,11.85
50.678474,888.28,851.32,17.50
50.694101,886.57,842.77,17.50
50.709728,883.43,835.35,12.72
50.725355,876.21,830.56,11.84
50.740982,876.83,828.69,17.05
50.756609,876.40,821.91,14.64
50.772236,881.39,822.79,15.79
50.787863,876.71,819.80,16.91
50.803490,867.09,821.39,16.67
50.819117,866.30,810.88,15.23
50.834744,865.54,811.74,14.96
50.850371,861.57,813.68,16.07
50.865998,858.03,805.69,15.31
50.881625,858.92,801.00,14.88
50.897252,851.39,797.74,14.20
50.912879,850.73,790.13,13.88
50.928506,849.78,785.94,15.71
50.944133,845.22,789.98,12.96
50.959760,839.19,784.75,16.60
50.975387,832.08,784.78,8.43
50.991014,840.46,784.29,15.65
51.006641,838.11,777.01,16.52
51.022269,843.42,777.46,15.88
51.037896,842.82,780.65,14.56
51.053523,844.20,781.00,18.01
51.069150,846.78,788.94,18.35
51.084777,851.18,794.71,13.37
51.100404,860.06,804.29,17.64
51.116031,867.05,807.90,10.74
51.131658,867.72,817.40,16.37
51.147285,878.08,827.42,15.33
51.162912,885.88,835.13,15.38
51.178539,900.10,845.50,14.10
51.194166,901.96,859.79,13.56
51.209793,913.65,869.80,16.16
51.225420,920.55,877.45,16.75
51.241047,924.95,889.04,12.96
51.256674,939.15,898.09,12.00
51.272301,942.18,906.87,17.91
51.287928,948.17,912.85,13.51
51.303555,948.23,911.81,13.11
51.319182,955.15,912.44,15.03
51.334809,956.82,919.17,13.61
51.350436,956.80,914.03,14.96
51.366063,954.34,910.72,14.52
51.381690,946.39,910.04,15.04
51.397317,943.35,904.63,17.36
51.412944,942.00,905.50,10.75
51.428571,934.20,894.06,14.12
51.444198,929.38,888.80,14.34
51.459825,924.79,875.54,15.19
51.475453,926.64,878.97,13.82
51.491080,912.22,869.04,17.58
51.506707,910.49,863.04,15.54
51.522334,899.44,851.46,14.14
51.537961,896.73,849.52,13.03
51.553588,893.48,847.05,15.34
51.569215,886.88,843.55,15.03
51.584842,888.18,838.46,12.81
51.600469,881.97,833.55,13.29
51.616096,875.66,832.84,19.40
51.631723,880.06,831.04,12.69
51.647350,876.85,826.03,16.35
51.662977,871.01,826.83,16.49
51.678604,871.63,826.66,15.07
51.694231,870.24,817.07,15.07
51.709858,863.42,815.66,8.87
51.725485,865.09,823.54,15.13
51.741112,864.00,812.51,11.63
51.756739,863.63,805.67,13.79
51.772366,856.71,803.71,14.34
51.787993,858.02,801.33,16.44
51.803620,849.74,799.34,14.26
51.819247,844.89,791.76,15.31
51.834874,849.48,788.34,15.68
51.850501,842.01,787.67,13.89
51.866128,835.02,784.76,12.72
51.881755,842.96,780.06,10.99
51.897382,842.04,779.75,13.82
51.913010,840.16,786.32,17.63
51.928637,840.91,780.55,15.65
51.944264,846.52,784.77,14.16
51.959891,847.73,794.01,11.20
51.975518,844.96,795.57,17.26
51.991145,852.01,797.71,10.35
52.006772,860.25,808.90,15.54
52.022399,869.08,814.34,14.13
52.038026,875.85,825.76,14.39
52.053653,886.28,835.44,14.24
52.069280,891.61,840.90,13.58
52.084907,901.62,860.41,10.29
52.100534,905.38,858.28,11.68
52.116161,921.72,877.13,12.68
52.131788,931.30,886.62,17.38
52.147415,933.24,895.56,14.80
52.163042,944.26,898.98,14.59
52.178669,942.42,906.15,12.80
52.194296,949.45,909.73,13.89
52.209923,956.00,911.16,14.35
52.225550,953.93,914.93,15.37
52.241177,952.87,915.90,12.28
52.256804,949.53,917.52,12.86
52.272431,944.44,914.13,15.20
52.288058,950.96,905.74,12.99
52.303685,942.61,903.88,17.47
52.319312,933.24,900.51,12.87
52.334939,934.55,890.79,15.07
52.350566,924.75,884.52,13.18
52.366194,922.03,879.41,16.57
52.381821,914.96,868.86,13.78
52.397448,909.25,867.09,12.84
52.413075,902.64,859.22,14.75
52.428702,898.52,848.10,14.91
52.444329,894.60,853.16,16.75
52.459956,889.03,846.22,14.62
52.475583,883.85,841.45,18.68
52.491210,883.36,834.35,14.60
52.506837,880.40,838.30,11.35
52.522464,880.20,826.64,16.84
52.538091,875.48,826.28,14.49
52.553718,874.61,830.16,13.93
52.569345,873.20,829.58,13.25
52.584972,862.88,821.85,15.24
52.600599,871.68,820.31,13.92
52.616226,869.26,818.72,12.97
52.631853,864.03,807.60,13.84
52.647480,860.89,815.02,18.61
52.663107,861.98,802.72,16.27
52.678734,854.63,808.97,17.22
52.694361,854.85,793.92,12.82
52.709988,847.33,794.40,10.41
52.725615,848.86,788.87,12.30
52.741242,847.11,787.40,16.71
52.756869,844.36,786.84,14.86
52.772496,837.40,784.42,14.14
52.788123,838.30,780.58,16.51
52.803750,836.17,781.54,15.36
52.819378,841.85,776.18,15.81
52.835005,838.45,786.09,18.31
52.850632,847.70,789.84,16.93
52.866259,845.76,796.04,13.08
52.881886,848.79,804.84,12.87
52.897513,865.47,804.91,16.20
52.913140,865.39,815.92,14.00
52.928767,876.85,822.75,15.72
52.944394,878.89,834.72,15.65
52.960021,890.49,842.49,13.68
52.975648,900.53,858.43,14.72
52.991275,908.30,862.86,14.17
53.006902,913.43,871.53,15.95
53.022529,928.59,882.04,11.41
53.038156,928.73,889.22,13.65
53.053783,934.71,891.38,14.91
53.069410,944.75,903.06,16.12
53.085037,950.15,906.01,16.21
53.100664,951.12,907.01,14.24
53.116291,951.76,912.71,17.96
53.131918,950.63,916.36,13.97
53.147545,955.30,914.87,15.73
53.163172,948.52,919.62,16.52
53.178799,943.29,910.43,16.01
53.194426,941.90,904.41,15.16
53.210053,934.96,898.43,14.32
53.225680,934.02,889.17,16.91
53.241307,927.33,882.40,15.31
53.256934,921.17,885.92,13.89
53.272562,917.19,876.26,13.51
53.288189,908.22,867.60,15.76
53.303816,900.83,857.60,15.09
53.319443,900.23,849.83,11.80
53.335070,892.50,848.51,18.02
53.350697,892.26,845.65,12.56
53.366324,894.31,837.46,12.83
53.381951,888.54,840.50,16.51
53.397578,880.97,832.48,17.17
53.413205,883.89,832.41,16.37
53.428832,874.59,825.56,16.21
53.444459,878.39,824.28,14.23
53.460086,875.65,822.08,14.44
53.475713,873.73,820.01,17.17
53.491340,871.93,821.57,13.85
53.506967,868.78,820.51,16.46
53.522594,868.70,814.81,16.12
53.538221,861.49,811.49,11.72
53.553848,862.81,804.08,17.62
53.569475,851.43,806.30,14.02
53.585102,860.66,800.50,16.73
53.600729,851.50,799.36,14.06
53.616356,844.99,787.54,14.48
53.631983,842.94,787.58,15.28
53.647610,846.46,784.49,13.56
53.663237,833.83,783.95,16.45
53.678864,834.98,781.83,17.16
53.694491,836.30,785.76,13.89
53.710119,842.21,784.45,12.60
53.725746,839.59,783.25,11.80
53.741373,844.62,785.41,14.08
53.757000,847.12,799.91,16.76
53.772627,853.32,800.22,13.06
53.788254,857.19,801.09,14.76
53.803881,859.10,815.36,16.05
53.819508,869.32,822.32,15.39
53.835135,879.43,832.30,15.18
53.850762,884.41,840.44,15.08
53.866389,897.38,853.35,17.73
53.882016,910.04,863.00,13.54
53.897643,916.67,869.01,15.99
53.913270,925.32,884.98,17.60
53.928897,928.41,885.28,15.74
53.944524,939.15,900.11,15.68
53.960151,944.97,907.33,13.86
53.975778,946.69,913.48,13.74
53.991405,955.43,912.36,15.20
54.007032,948.71,915.37,12.70
54.022659,952.14,919.70,12.77
54.038286,948.95,916.86,12.35
54.053913,951.39,909.19,13.47
54.069540,946.51,909.47,15.72
54.085167,948.97,909.25,14.75
54.100794,940.28,903.97,15.78
54.116421,932.63,895.90,14.96
54.132048,931.24,885.97,14.60
54.147675,926.16,877.27,16.27
54.163303,918.74,875.70,17.57
54.178930,915.98,867.30,15.15
54.194557,908.88,865.68,18.38
54.210184,901.57,853.34,17.98
54.225811,896.59,858.64,15.86
54.241438,893.47,848.99,13.49
54.257065,885.69,836.24,15.82
54.272692,886.51,834.42,19.14
54.288319,882.67,829.16,16.21
54.303946,881.32,831.00,14.56
54.319573,872.16,826.03,14.97
54.335200,879.81,823.38,12.95
54.350827,881.66,824.32,17.29
54.366454,874.10,817.10,11.99
54.382081,869.68,822.14,16.94
54.397708,865.98,814.24,12.51
54.413335,867.86,814.60,12.30
54.428962,866.51,809.51,15.63
54.444589,860.97,810.67,13.37
54.460216,860.65,804.89,12.99
54.475843,854.77,798.97,16.27
54.491470,850.80,795.23,12.48
54.507097,846.32,790.70,13.03
54.522724,844.14,785.50,16.60
54.538351,845.25,796.13,14.66
54.553978,839.18,780.96,18.17
54.569605,841.96,785.83,15.63
54.585232,836.06,780.59,19.07
54.600859,836.08,783.57,16.24
54.616487,843.59,788.34,16.44
54.632114,842.05,789.31,14.79
54.647741,847.13,792.47,15.15
54.663368,852.09,797.85,16.62
54.678995,859.16,800.55,14.91
54.694622,861.27,810.74,13.52
54.710249,867.45,818.00,13.78
54.725876,875.31,835.86,17.69
54.741503,885.49,842.28,15.37
54.757130,899.98,848.64,9.05
54.772757,906.82,866.52,15.26
54.788384,916.78,869.73,15.22
54.804011,923.68,886.11,14.53
54.819638,933.63,896.98,14.13
54.835265,940.27,891.88,16.10
54.850892,944.58,902.84,20.11
54.866519,941.29,911.49,15.87
54.882146,957.33,913.20,14.95
54.897773,951.71,920.23,14.11
54.913400,963.13,919.26,15.02
54.929027,947.20,915.25,16.77
54.944654,954.43,912.38,14.53
54.960281,945.86,914.96,12.46
54.975908,938.26,911.22,11.37
54.991535,938.20,903.53,13.65
55.007162,939.24,897.67,16.35
55.022789,930.27,888.88,20.52
55.038416,923.35,878.42,15.64
55.054043,916.73,878.29,12.09
55.069671,911.69,871.06,15.23
55.085298,907.05,869.01,15.63
55.100925,906.79,861.05,18.10
55.116552,896.55,850.13,16.79
55.132179,890.56,849.94,13.17
55.147806,890.12,844.31,10.74
55.163433,891.00,840.15,11.36
55.179060,879.95,839.49,14.23
55.194687,887.10,836.55,15.19
55.210314,881.61,830.55,13.55
55.225941,874.72,827.86,14.33
55.241568,874.98,823.95,13.71
55.257195,874.53,822.01,15.28
55.272822,875.35,819.56,12.31
55.288449,873.31,815.84,14.31
55.304076,870.70,813.02,14.17
55.319703,865.45,818.33,13.63
55.335330,856.03,811.62,15.63
55.350957,861.53,801.18,16.20
55.366584,858.56,804.64,14.41
55.382211,854.82,801.67,13.86
55.397838,848.85,798.53,18.13
55.413465,842.86,797.60,12.83
55.429092,848.24,788.45,14.74
55.444719,847.92,784.66,14.12
55.460346,848.44,781.89,16.96
55.475973,839.36,780.28,15.62
55.491600,845.05,788.37,15.40
55.507228,843.27,784.69,11.56
55.522855,848.19,792.62,10.28
55.538482,851.04,791.78,13.95
55.554109,855.40,797.88,11.43
55.569736,848.85,803.31,13.54
55.585363,862.79,808.98,16.71
55.600990,874.78,818.89,13.20
55.616617,883.36,830.28,14.25
55.632244,885.08,839.20,15.03
55.647871,896.93,848.03,14.60
55.663498,902.52,860.41,12.28
55.679125,912.44,873.37,13.30
55.694752,919.60,878.60,15.08
55.710379,933.51,893.67,14.52
55.726006,928.88,903.71,14.61
55.741633,946.44,904.94,17.06
55.757260,950.57,906.19,16.84
55.772887,955.78,911.51,12.68
55.788514,955.12,919.85,17.64
55.804141,953.29,919.59,17.55
55.819768,947.65,912.35,14.22
55.835395,958.97,912.65,16.03
55.851022,951.29,913.56,13.25
55.866649,945.82,910.81,13.87
55.882276,938.37,901.99,11.36
55.897903,932.95,897.09,12.15
55.913530,935.03,889.02,16.11
55.929157,921.09,883.29,12.70
55.944784,919.01,879.62,14.59
55.960412,916.79,874.39,16.43
55.976039,905.98,858.73,17.93
55.991666,904.55,859.66,12.16
56.007293,894.85,852.96,16.38
56.022920,901.04,849.24,15.00
56.038547,889.22,850.85,15.16
56.054174,889.35,846.31,12.90
56.069801,883.85,838.41,12.86
56.085428,882.32,838.73,18.36
56.101055,875.56,830.61,12.57
56.116682,877.92,833.87,14.96
56.132309,879.85,826.32,15.41
56.147936,875.33,827.07,15.30
56.163563,871.03,824.09,10.65
56.179190,879.37,818.62,16.46
56.194817,866.92,822.64,16.07
56.210444,866.22,811.86,14.09
56.226071,865.60,808.97,17.78
56.241698,852.49,807.94,15.48
56.257325,857.68,798.30,12.45
56.272952,853.06,802.63,13.81
56.288579,848.16,797.18,15.39
56.304206,845.69,792.57,18.41
56.319833,847.50,793.20,13.05
56.335460,844.92,782.72,16.43
56.351087,838.86,786.46,13.84
56.366714,832.78,784.93,15.09
56.382341,837.97,785.73,18.23
56.397968,848.00,781.22,16.61
56.413596,840.28,787.66,14.95
56.429223,845.78,789.72,15.70
56.444850,854.80,795.92,15.08
56.460477,844.35,803.93,13.62
56.476104,864.29,808.98,12.59
56.491731,869.79,822.00,13.18
56.507358,887.15,825.82,18.38
56.522985,887.35,836.15,14.96
56.538612,896.91,848.67,14.24
56.554239,908.76,862.58,14.35
56.569866,908.41,873.39,12.26
56.585493,918.67,879.78,17.09
56.601120,931.94,892.06,12.79
56.616747,935.89,895.62,14.41
56.632374,943.15,912.02,14.35
56.648001,948.14,908.42,17.60
56.663628,954.12,914.14,16.53
56.679255,955.90,914.76,15.03
56.694882,957.38,921.38,17.93
56.710509,947.98,921.99,13.37
56.726136,956.56,913.31,15.70
56.741763,950.38,918.74,12.86
56.757390,950.49,914.33,16.12
56.773017,942.97,906.76,13.60
56.788644,937.99,899.06,15.16
56.804271,934.26,894.67,18.40
56.819898,933.11,888.56,13.87
56.835525,929.78,880.79,15.24
56.851152,919.31,872.68,17.29
56.866780,915.90,871.66,13.28
56.882407,905.90,863.33,12.62
56.898034,898.29,856.73,11.66
56.913661,906.16,856.99,16.73
56.929288,898.44,848.72,13.68
56.944915,888.88,841.44,14.23
56.960542,884.52,839.37,10.51
56.976169,885.78,836.21,18.89
56.991796,883.31,829.73,15.41
57.007423,877.98,831.52,18.12
57.023050,884.56,832.34,15.39
57.038677,883.06,823.04,13.74
57.054304,873.92,829.14,19.29
57.069931,872.67,825.75,16.98
57.085558,870.25,823.53,15.85
57.101185,868.83,817.61,12.30
57.116812,866.38,813.23,12.45
57.132439,858.49,811.89,13.43
57.148066,856.29,805.03,14.10
57.163693,849.06,800.67,13.95
57.179320,853.71,801.28,15.17
57.194947,850.63,793.16,11.78
57.210574,848.64,794.86,17.34
57.226201,840.72,787.11,16.15
57.241828,841.47,786.33,16.05
57.257455,841.56,791.65,14.04
57.273082,842.81,785.84,13.78
57.288709,849.52,788.25,13.22
57.304337,845.82,791.79,14.55
57.319964,847.29,793.72,17.46
57.335591,852.03,796.49,10.98
57.351218,860.96,804.79,18.11
57.366845,861.44,810.32,16.52
57.382472,867.56,821.03,16.13
57.398099,877.52,827.35,14.04
57.413726,885.94,835.52,12.99
57.429353,889.98,848.07,10.97
57.444980,907.85,859.28,14.70
57.460607,913.27,871.27,19.99
57.476234,917.31,881.58,17.33
57.491861,924.63,890.25,14.79
57.507488,935.54,899.30,15.97
57.523115,946.28,907.43,17.00
57.538742,948.03,909.10,14.43
57.554369,952.51,918.54,19.44
57.569996,953.03,922.24,15.55
57.585623,958.23,926.77,17.59
57.601250,964.40,927.45,16.98
57.616877,958.40,922.30,16.17
57.632504,955.68,918.05,17.38
57.648131,948.36,910.76,15.82
57.663758,947.61,908.41,16.09
57.679385,943.87,902.75,9.52
57.695012,935.28,898.59,11.41
57.710639,934.00,894.28,13.26
57.726266,929.90,887.37,13.16
57.741893,924.07,877.55,19.09
57.757521,916.46,873.78,15.13
57.773148,908.72,869.70,12.68
57.788775,908.18,862.07,17.41
57.804402,906.54,856.02,15.26
57.820029,893.57,847.99,11.31
57.835656,891.28,849.09,16.99
57.851283,892.96,844.94,14.86
57.866910,890.13,842.43,15.79
57.882537,887.58,838.33,14.49
57.898164,881.68,837.20,15.14
57.913791,882.80,831.51,12.61
57.929418,880.49,831.21,14.98
57.945045,872.44,830.43,15.12
57.960672,874.55,830.06,12.26
57.976299,869.26,826.85,17.14
57.991926,872.86,823.33,12.38
58.007553,869.08,817.73,15.25
58.023180,864.83,818.09,16.84
58.038807,856.82,806.68,20.22
58.054434,857.03,808.48,17.49
58.070061,857.44,803.29,16.39
58.085688,851.10,791.49,14.24
58.101315,850.28,792.45,12.98
58.116942,845.82,792.61,13.93
58.132569,844.37,787.44,13.59
58.148196,842.47,785.66,13.64
58.163823,844.31,781.86,17.56
58.179450,848.81,784.88,12.92
58.195077,849.34,790.31,12.57
58.210705,848.96,798.64,10.63
58.226332,850.84,805.89,14.28
58.241959,853.65,805.27,16.27
58.257586,864.69,810.87,16.55
58.273213,875.73,818.29,16.28
58.288840,877.06,825.97,17.62
58.304467,879.97,839.70,15.82
58.320094,894.05,852.24,11.80
58.335721,905.96,864.00,15.50
58.351348,908.18,869.89,16.02
58.366975,924.19,880.13,15.87
58.382602,927.93,890.61,14.57
58.398229,943.02,897.09,15.73
58.413856,943.76,902.58,16.43
58.429483,941.56,913.14,19.49
58.445110,953.94,920.74,14.51
58.460737,963.78,920.04,20.95
58.476364,957.01,917.86,16.84
58.491991,962.09,919.56,16.80
58.507618,960.18,929.76,15.34
58.523245,951.90,920.82,16.67
58.538872,954.49,919.39,14.36
58.554499,954.76,908.70,16.62
58.570126,945.14,911.62,16.43
58.585753,942.44,899.77,10.68
58.601380,929.42,894.40,12.92
58.617007,927.73,888.43,16.62
58.632634,927.54,881.69,13.22
58.648261,923.08,869.90,14.58
58.663889,908.25,872.01,15.75
58.679516,907.25,857.78,17.25
58.695143,905.80,861.31,16.92
58.710770,904.20,851.45,16.83
58.726397,891.85,845.39,17.12
58.742024,890.72,847.34,16.28
58.757651,887.92,837.03,13.00
58.773278,884.96,837.02,16.49
58.788905,886.69,830.89,10.71
58.804532,883.54,833.88,18.62
58.820159,887.55,835.34,12.14
58.835786,874.81,827.70,15.56
58.851413,873.98,824.08,14.96
58.867040,871.00,822.15,13.43
58.882667,872.21,821.71,18.35
58.898294,865.33,815.69,18.27
58.913921,866.10,815.78,13.68
58.929548,865.47,810.42,15.90
58.945175,862.69,809.57,18.78
58.960802,861.81,805.69,19.57
58.976429,856.63,793.68,14.05
58.992056,847.82,799.83,16.21
59.007683,846.51,786.71,14.76
59.023310,846.72,792.43,14.17
59.038937,845.59,789.21,12.00
59.054564,846.48,788.19,16.42
59.070191,850.97,793.21,13.67
59.085818,853.51,793.90,14.29
59.101446,860.80,793.57,16.33
59.117073,851.56,794.06,15.82
59.132700,857.58,806.31,15.32
59.148327,865.31,806.95,17.69
59.163954,880.30,821.21,13.54
59.179581,878.70,829.25,17.49
59.195208,882.89,841.18,13.00
59.210835,892.59,849.54,14.39
59.226462,901.94,856.96,12.07
59.242089,912.62,871.27,15.90
59.257716,924.04,877.50,12.16
59.273343,925.66,888.79,15.26
59.288970,934.72,898.21,14.07
59.304597,943.16,904.16,12.39
59.320224,946.92,909.69,16.24
59.335851,953.48,915.83,18.79
59.351478,962.26,922.32,16.52
59.367105,959.99,923.05,14.47
59.382732,961.41,932.60,18.28
59.398359,959.65,927.13,14.28
59.413986,958.98,922.11,13.69
59.429613,958.47,921.78,14.97
59.445240,950.84,918.24,14.85
59.460867,949.55,906.51,17.60
59.476494,950.48,903.20,14.27
59.492121,936.71,903.19,14.04
59.507748,929.80,888.97,17.47
59.523375,926.86,883.80,12.01
59.539002,922.82,874.23,14.02
59.554630,918.47,875.56,14.47
59.570257,910.24,865.41,14.85
59.585884,903.12,863.52,17.15
59.601511,900.95,854.44,12.50
59.617138,900.98,845.72,15.83
59.632765,898.57,850.04,13.30
59.648392,888.78,839.14,17.00
59.664019,890.99,840.80,16.80
59.679646,888.74,835.44,15.83
59.695273,884.01,837.86,14.84
59.710900,886.17,828.69,15.40
59.726527,880.75,830.37,14.26
59.742154,884.31,828.54,12.71
59.757781,880.88,832.55,16.18
59.773408,878.91,822.11,14.71
59.789035,871.93,821.30,10.74
59.804662,866.95,818.14,15.12
59.820289,869.99,811.73,16.22
59.835916,862.30,810.88,14.76
59.851543,856.53,801.23,11.53
59.867170,859.29,806.14,15.76
59.882797,853.39,797.33,10.57
59.898424,852.51,795.32,16.59
59.914051,848.78,796.37,14.47
59.929678,849.00,796.17,12.04
59.945305,846.45,791.14,13.09
59.960932,842.94,790.71,14.72
59.976559,854.18,785.16,16.23
59.992186,850.54,798.08,12.58
60.007814,854.46,796.64,13.26
60.023441,860.18,802.05,15.33
60.039068,861.53,809.06,14.60
60.054695,871.42,819.82,15.92
60.070322,878.47,832.50,14.99
60.085949,892.19,837.52,16.08
60.101576,897.52,842.63,14.21
60.117203,900.34,854.47,14.56
60.132830,918.28,873.62,13.57
60.148457,915.68,876.74,14.43
60.164084,931.01,889.91,14.38
60.179711,939.82,898.99,13.54
60.195338,941.53,908.25,16.64
60.210965,943.85,911.86,16.58
60.226592,957.88,918.63,16.74
60.242219,962.69,923.17,13.95
60.257846,961.90,926.20,18.08
60.273473,963.15,927.69,16.35
60.289100,959.67,923.48,15.89
60.304727,963.98,925.89,15.75
60.320354,959.16,920.83,13.15
60.335981,959.25,918.28,16.50
60.351608,948.18,918.44,14.48
60.367235,940.93,906.22,12.00
60.382862,943.19,898.20,16.83
60.398489,937.07,890.36,13.04
60.414116,931.52,885.81,12.87
60.429743,919.17,875.92,15.70
60.445370,922.24,874.40,12.81
60.460998,916.34,870.53,16.89
60.476625,907.09,864.56,14.36
60.492252,904.22,860.44,14.30
60.507879,901.68,850.73,14.62
60.523506,898.90,850.81,11.29
60.539133,888.93,844.15,17.17
60.554760,893.29,840.65,14.75
60.570387,887.69,841.68,15.48
60.586014,888.01,832.11,12.52
60.601641,885.23,829.91,12.86
60.617268,883.58,830.45,14.38
60.632895,879.30,828.10,14.86
60.648522,877.43,828.38,11.80
60.664149,877.73,827.97,14.96
60.679776,874.77,816.08,14.82
60.695403,873.65,816.93,16.66
60.711030,867.25,812.62,13.64
60.726657,863.20,811.08,17.16
60.742284,870.13,805.76,13.57
60.757911,862.68,807.65,14.56
60.773538,857.81,802.65,16.30
60.789165,857.05,794.67,14.82
