timestamp,ppg_red,ppg_infrared,ppg_ambient
0.000000,895.22,852.40,12.41
0.015627,912.08,864.56,15.68
0.031253,919.00,878.98,16.17
0.046880,931.06,885.77,11.83
0.062507,943.09,896.74,11.50
0.078133,941.60,903.76,16.53
0.093760,954.03,907.84,15.50
0.109386,952.92,919.13,15.20
0.125013,963.87,923.90,13.26
0.140640,960.96,927.95,13.30
0.156266,958.19,920.58,14.58
0.171893,963.00,924.74,14.34
0.187520,959.65,917.08,15.06
0.203146,960.43,920.67,13.16
0.218773,954.48,918.51,12.68
0.234399,947.16,915.70,14.83
0.250026,939.79,906.82,13.15
0.265653,939.54,895.09,14.42
0.281279,933.43,885.37,14.50
0.296906,921.98,886.41,14.46
0.312533,919.81,874.46,17.37
0.328159,920.27,867.54,13.88
0.343786,910.71,868.29,13.60
0.359412,904.26,853.98,13.74
0.375039,893.56,852.30,14.78
0.390666,900.11,848.56,17.56
0.406292,896.20,852.68,16.33
0.421919,892.76,837.45,16.38
0.437546,884.11,842.91,14.17
0.453172,885.35,839.44,16.27
0.468799,879.86,834.29,14.26
0.484425,886.80,833.28,13.61
0.500052,880.43,827.74,16.78
0.515679,878.40,829.34,16.84
0.531305,880.41,813.00,11.62
0.546932,874.30,820.73,10.85
0.562559,872.12,817.25,13.54
0.578185,866.06,820.45,13.68
0.593812,864.19,806.44,15.48
0.609438,863.22,803.44,13.66
0.625065,858.48,802.21,16.29
0.640692,856.93,798.99,17.07
0.656318,848.26,797.23,14.37
0.671945,850.74,795.80,12.13
0.687572,853.09,798.13,13.01
0.703198,850.94,793.81,13.84
0.718825,853.84,791.34,15.44
0.734452,852.04,800.40,8.66
0.750078,862.58,803.70,15.97
0.765705,856.24,804.10,14.01
0.781331,868.69,811.00,15.62
0.796958,880.16,823.71,17.33
0.812585,881.10,825.66,12.55
0.828211,888.89,830.16,17.91
0.843838,902.30,843.86,13.84
0.859465,908.75,855.26,15.00
0.875091,913.85,865.14,14.38
0.890718,924.14,877.77,18.91
0.906344,934.44,890.35,15.24
0.921971,942.61,895.49,16.76
0.937598,947.67,910.76,16.61
0.953224,954.74,913.84,17.19
0.968851,958.80,916.05,11.46
0.984478,960.46,925.77,17.40
1.000104,962.03,926.74,12.80
1.015731,963.83,930.08,14.29
1.031357,963.79,926.12,15.58
1.046984,955.48,930.25,18.00
1.062611,959.87,918.86,15.31
1.078237,957.17,912.83,17.51
1.093864,950.85,909.21,16.36
1.109491,946.09,899.49,13.78
1.125117,937.47,889.45,16.59
1.140744,934.14,891.76,16.83
1.156370,932.29,883.55,13.82
1.171997,922.07,876.39,17.61
1.187624,916.16,867.23,13.95
1.203250,909.07,863.86,14.53
1.218877,907.34,857.66,17.11
1.234504,901.41,857.35,16.38
1.250130,898.97,850.70,13.05
1.265757,894.94,848.95,14.52
1.281383,892.52,843.36,15.05
1.297010,887.03,837.90,15.53
1.312637,884.79,829.92,16.57
1.328263,882.29,838.46,17.89
1.343890,885.93,833.78,13.89
1.359517,887.18,835.08,15.07
1.375143,877.97,824.45,15.82
1.390770,877.16,827.53,15.37
1.406396,868.15,818.71,16.86
1.422023,875.89,814.92,15.45
1.437650,869.60,819.29,18.99
1.453276,867.00,815.27,12.91
1.468903,863.91,810.21,13.44
1.484530,862.05,799.82,13.47
1.500156,860.24,799.75,16.08
1.515783,854.02,794.05,14.54
1.531410,848.60,788.95,16.56
1.547036,853.52,790.17,14.04
1.562663,852.21,796.18,20.29
1.578289,855.18,792.48,12.60
1.593916,853.39,807.03,18.61
1.609543,858.86,805.75,11.57
1.625169,860.17,808.90,15.18
1.640796,863.68,811.74,12.52
1.656423,879.79,820.71,15.88
1.672049,883.27,840.75,15.19
1.687676,888.29,843.26,12.96
1.703302,899.81,848.65,18.94
1.718929,911.22,859.76,15.62
1.734556,923.96,870.37,11.87
1.750182,925.41,883.48,14.35
1.765809,936.45,895.98,19.75
1.781436,948.49,897.32,12.47
1.797062,951.07,910.05,11.57
1.812689,957.60,912.31,14.58
1.828315,959.87,918.83,16.13
1.843942,962.31,928.04,18.71
1.859569,962.88,930.84,14.15
1.875195,965.56,925.46,15.11
1.890822,966.71,934.00,15.75
1.906449,966.17,924.75,14.97
1.922075,957.24,917.26,18.98
1.937702,958.89,915.75,16.28
1.953328,953.76,909.96,16.60
1.968955,940.51,904.05,15.35
1.984582,937.17,897.26,15.23
2.000208,936.71,890.47,12.65
2.015835,929.66,878.50,16.22
2.031462,921.59,878.06,13.99
2.047088,916.92,872.05,13.81
2.062715,907.74,862.74,16.77
2.078341,901.43,855.35,13.32
2.093968,904.14,858.20,15.90
2.109595,901.64,851.08,15.21
2.125221,902.19,844.55,15.24
2.140848,892.92,844.66,15.35
2.156475,888.10,842.50,12.07
2.172101,887.97,845.89,14.71
2.187728,890.09,835.62,18.32
2.203355,888.80,831.18,14.20
2.218981,882.68,828.36,14.75
2.234608,879.10,829.77,18.90
2.250234,875.78,819.52,13.73
2.265861,880.94,825.02,14.03
2.281488,873.12,817.96,15.07
2.297114,871.79,820.13,15.13
2.312741,866.33,812.92,15.89
2.328368,866.53,804.51,17.63
2.343994,864.00,802.09,8.82
2.359621,860.18,797.50,15.29
2.375247,853.88,803.38,14.32
2.390874,855.91,795.74,12.04
2.406501,852.01,795.82,13.94
2.422127,850.91,795.52,16.88
2.437754,859.57,796.53,17.03
2.453381,858.80,799.18,16.38
2.469007,862.09,805.91,14.89
2.484634,867.52,809.56,14.73
2.500260,867.14,815.32,15.96
2.515887,882.83,821.62,16.19
2.531514,885.36,836.05,17.51
2.547140,891.94,841.11,11.10
2.562767,901.48,857.81,16.01
2.578394,913.40,867.95,12.57
2.594020,925.35,879.76,13.14
2.609647,926.72,884.89,14.47
2.625273,934.38,893.61,13.68
2.640900,950.93,905.23,18.79
2.656527,954.00,914.27,14.91
2.672153,959.07,921.14,17.19
2.687780,961.78,927.04,15.18
2.703407,965.92,928.12,18.15
2.719033,963.38,932.81,17.44
2.734660,966.43,924.97,14.98
2.750286,967.28,929.87,13.24
2.765913,961.33,923.15,16.19
2.781540,962.12,922.68,16.05
2.797166,952.70,921.13,11.53
2.812793,952.53,910.16,17.65
2.828420,946.14,903.63,15.39
2.844046,939.11,892.52,16.05
2.859673,935.41,895.09,13.31
2.875300,926.61,882.92,13.89
2.890926,926.48,876.99,14.04
2.906553,915.66,874.92,16.91
2.922179,910.23,864.90,14.41
2.937806,910.36,856.05,14.27
2.953433,901.89,852.54,13.21
2.969059,901.69,847.46,14.39
2.984686,896.56,849.22,13.46
3.000313,894.06,845.71,12.73
3.015939,892.93,838.91,14.76
3.031566,891.09,842.71,16.67
3.047192,882.22,839.14,15.07
3.062819,888.35,829.26,16.74
3.078446,890.20,835.84,12.19
3.094072,877.93,833.42,15.53
3.109699,876.39,822.95,15.18
3.125326,875.08,820.80,16.78
3.140952,874.27,818.36,17.96
3.156579,867.46,817.86,15.51
3.172205,865.27,815.35,14.17
3.187832,860.71,812.26,14.13
3.203459,860.29,804.92,14.06
3.219085,853.87,800.44,14.89
3.234712,853.74,795.44,15.33
3.250339,853.60,800.47,16.84
3.265965,851.18,797.34,14.48
3.281592,853.81,799.67,13.24
3.297218,855.29,796.89,17.18
3.312845,862.83,804.46,19.91
3.328472,864.34,808.78,16.07
3.344098,866.88,805.70,13.00
3.359725,874.78,817.72,14.60
3.375352,878.86,826.05,15.07
3.390978,890.51,835.40,14.40
3.406605,900.25,840.83,11.34
3.422231,908.33,855.25,14.33
3.437858,916.29,872.37,14.43
3.453485,927.25,874.98,17.24
3.469111,933.36,894.29,18.54
3.484738,943.91,901.09,16.27
3.500365,950.08,906.84,14.54
3.515991,963.57,917.24,15.47
3.531618,964.84,921.62,11.88
3.547245,965.64,925.35,16.66
3.562871,968.27,933.81,13.67
3.578498,974.08,938.59,14.75
3.594124,972.27,932.16,15.03
3.609751,968.64,927.49,15.15
3.625378,965.23,929.89,13.10
3.641004,956.93,912.47,11.34
3.656631,954.85,913.84,17.05
3.672258,952.38,910.34,15.03
3.687884,946.18,904.53,15.54
3.703511,941.16,896.92,13.83
3.719137,937.50,891.88,14.56
3.734764,932.95,880.91,16.34
3.750391,917.86,871.71,17.39
3.766017,918.79,869.83,16.93
3.781644,914.71,864.56,12.26
3.797271,907.69,857.74,16.10
3.812897,906.99,856.60,12.32
3.828524,903.95,850.39,11.15
3.844150,894.03,851.56,14.78
3.859777,900.70,847.99,15.43
3.875404,899.19,842.54,17.91
3.891030,886.09,842.03,13.74
3.906657,891.19,834.58,13.81
3.922284,888.92,835.13,16.83
3.937910,889.75,836.95,12.76
3.953537,889.80,827.17,12.42
3.969163,883.35,831.33,15.21
3.984790,880.16,827.05,13.87
4.000417,874.69,817.96,16.66
4.016043,873.44,813.48,13.27
4.031670,871.91,813.38,14.62
4.047297,867.32,804.18,14.87
4.062923,867.54,804.97,16.95
4.078550,860.97,802.27,14.76
4.094176,859.12,803.11,19.76
4.109803,853.64,796.57,10.33
4.125430,854.70,795.16,17.13
4.141056,857.32,795.43,14.48
4.156683,856.38,797.53,13.77
4.172310,864.35,799.65,15.65
4.187936,863.41,802.02,16.84
4.203563,865.85,812.05,11.12
4.219189,875.89,817.44,15.49
4.234816,878.09,825.15,14.05
4.250443,889.95,834.21,14.62
4.266069,896.82,849.01,14.73
4.281696,903.84,853.73,12.42
4.297323,912.94,870.59,15.77
4.312949,923.65,879.31,14.03
4.328576,934.31,891.33,15.88
4.344203,944.48,895.62,14.69
4.359829,947.08,899.15,16.21
4.375456,958.28,913.04,14.57
4.391082,956.97,915.57,14.95
4.406709,962.63,923.68,18.35
4.422336,967.14,926.38,12.98
4.437962,969.29,923.88,13.96
4.453589,971.85,936.14,13.84
4.469216,968.82,929.32,14.34
4.484842,971.44,932.82,20.40
4.500469,959.82,919.77,16.70
4.516095,962.58,916.37,12.42
4.531722,955.31,907.36,17.38
4.547349,945.22,905.20,13.38
4.562975,938.57,900.08,14.53
4.578602,939.21,890.24,13.14
4.594229,931.72,886.59,17.57
4.609855,926.81,875.66,14.28
4.625482,917.95,870.32,14.64
4.641108,912.70,865.27,13.82
4.656735,911.42,856.42,12.77
4.672362,908.18,853.19,14.67
4.687988,905.54,852.91,18.67
4.703615,896.15,853.95,13.15
4.719242,899.92,849.35,14.79
4.734868,892.24,840.81,15.46
4.750495,894.76,845.43,10.65
4.766121,892.38,838.50,16.39
4.781748,891.45,831.02,13.43
4.797375,884.59,829.53,14.41
4.813001,884.60,828.29,11.86
4.828628,879.83,828.61,17.51
4.844255,882.08,828.31,14.03
4.859881,878.83,820.96,16.58
4.875508,875.20,819.69,14.30
4.891134,865.62,817.11,15.95
4.906761,865.09,810.93,13.20
4.922388,868.92,806.96,16.40
4.938014,859.29,803.31,12.23
4.953641,858.01,802.37,12.94
4.969268,856.50,798.10,15.58
4.984894,858.75,795.67,15.00
5.000521,853.36,794.63,13.94
5.016148,855.34,800.48,12.94
5.031774,862.15,795.84,15.46
5.047401,866.96,811.02,14.60
5.063027,868.70,807.34,14.92
5.078654,871.30,820.38,12.76
5.094281,883.89,824.24,16.93
5.109907,881.95,834.42,14.80
5.125534,895.91,846.39,17.92
5.141161,902.30,853.58,10.91
5.156787,913.46,867.88,13.08
5.172414,923.21,873.36,14.75
5.188040,931.89,885.72,18.91
5.203667,942.58,897.50,11.26
5.219294,946.60,901.89,15.14
5.234920,953.60,914.20,15.16
5.250547,963.48,916.57,11.83
5.266174,967.41,926.75,13.80
5.281800,972.55,926.34,14.70
5.297427,970.91,930.04,13.43
5.313053,969.94,930.35,13.80
5.328680,966.52,928.79,14.78
5.344307,970.66,926.56,15.76
5.359933,967.73,921.51,14.72
5.375560,960.69,918.88,15.75
5.391187,955.79,914.32,13.65
5.406813,950.63,910.12,18.23
5.422440,940.75,900.93,12.09
5.438066,938.59,893.78,15.45
5.453693,940.64,887.38,17.66
5.469320,925.23,875.81,15.72
5.484946,920.62,867.97,14.55
5.500573,914.56,865.71,15.24
5.516200,912.42,862.69,15.49
5.531826,909.47,856.86,18.25
5.547453,905.23,857.24,17.66
5.563079,898.14,848.89,17.32
5.578706,901.38,847.61,19.58
5.594333,892.93,846.90,12.37
5.609959,900.18,845.48,13.16
5.625586,891.85,833.99,17.77
5.641213,893.32,839.85,13.24
5.656839,888.46,834.09,13.40
5.672466,890.79,830.47,17.76
5.688093,887.04,827.16,10.31
5.703719,881.00,824.50,12.09
5.719346,878.53,823.11,10.93
5.734972,875.48,812.65,12.87
5.750599,873.65,811.94,14.05
5.766226,869.01,811.42,16.03
5.781852,865.71,808.02,13.50
5.797479,863.56,802.23,19.62
5.813106,863.91,800.52,17.90
5.828732,856.17,796.80,15.91
5.844359,856.99,800.44,15.72
5.859985,857.88,792.89,17.21
5.875612,856.98,800.00,12.84
5.891239,858.68,800.06,14.07
5.906865,863.00,804.26,14.47
5.922492,866.57,809.78,12.73
5.938119,876.26,817.96,14.81
5.953745,880.85,823.93,15.53
5.969372,886.05,832.00,18.76
5.984998,891.03,838.66,17.30
6.000625,901.64,848.84,14.89
6.016252,920.65,862.12,18.34
6.031878,924.16,871.32,11.71
6.047505,933.37,888.08,15.70
6.063132,942.06,892.48,17.22
6.078758,948.46,902.93,14.96
6.094385,957.35,906.47,13.01
6.110011,959.89,921.46,15.95
6.125638,968.19,924.75,13.75
6.141265,967.27,926.96,15.99
6.156891,973.29,939.34,16.25
6.172518,974.13,932.46,16.88
6.188145,974.26,927.94,15.31
6.203771,969.56,929.21,15.87
6.219398,966.20,924.62,15.00
6.235024,960.10,923.62,14.17
6.250651,957.46,916.75,17.41
6.266278,956.72,905.25,17.29
6.281904,947.02,902.40,13.43
6.297531,936.25,891.70,15.15
6.313158,933.63,892.15,15.32
6.328784,929.60,875.29,13.66
6.344411,918.00,875.59,15.43
6.360038,912.59,866.08,17.10
6.375664,915.65,862.23,15.19
6.391291,904.91,858.89,16.06
6.406917,908.89,853.97,15.29
6.422544,904.27,848.41,13.25
6.438171,898.87,844.93,13.35
6.453797,895.05,840.29,15.91
6.469424,893.35,838.80,17.99
6.485051,897.61,834.16,10.87
6.500677,893.44,838.29,16.35
6.516304,890.71,828.42,14.04
6.531930,883.60,828.94,15.57
6.547557,886.72,823.82,16.95
6.563184,881.95,828.84,16.79
6.578810,877.63,819.09,13.99
6.594437,880.54,818.62,17.66
6.610064,870.01,813.60,15.48
6.625690,870.47,810.89,19.56
6.641317,867.23,808.19,15.82
6.656943,860.03,804.95,13.57
6.672570,861.52,801.44,18.63
6.688197,856.43,799.97,16.16
6.703823,852.64,795.46,17.95
6.719450,857.11,795.64,14.81
6.735077,854.86,797.53,16.15
6.750703,861.44,801.01,14.42
6.766330,862.49,797.41,11.56
6.781956,867.94,810.70,13.92
6.797583,870.68,812.18,12.83
6.813210,876.58,822.80,17.83
6.828836,887.40,829.25,12.97
6.844463,898.13,840.62,13.89
6.860090,904.36,849.37,16.50
6.875716,910.77,863.81,17.40
6.891343,922.73,868.27,17.50
6.906969,934.10,884.61,18.59
6.922596,940.56,890.41,15.29
6.938223,947.99,904.98,16.24
6.953849,959.43,906.86,17.80
6.969476,959.09,920.93,18.48
6.985103,963.45,925.97,13.79
7.000729,965.94,928.33,15.50
7.016356,971.39,926.00,17.07
7.031982,971.28,936.96,11.33
7.047609,972.62,930.32,14.67
7.063236,966.06,927.01,15.55
7.078862,966.17,922.48,14.35
7.094489,964.81,923.23,15.95
7.110116,956.80,913.75,12.76
7.125742,950.29,909.75,14.72
7.141369,947.76,898.02,17.78
7.156996,942.68,891.92,13.35
7.172622,934.79,883.24,11.64
7.188249,932.24,884.16,16.97
7.203875,925.72,878.70,16.00
7.219502,922.79,869.11,15.38
7.235129,911.90,863.57,13.64
7.250755,913.79,859.55,14.28
7.266382,909.01,852.56,15.22
7.282009,905.16,849.29,14.49
7.297635,900.02,849.20,15.51
7.313262,897.73,842.69,11.20
7.328888,900.72,841.49,18.84
7.344515,896.22,835.25,15.95
7.360142,892.76,839.92,17.88
7.375768,887.93,835.99,15.26
7.391395,887.66,833.99,17.42
7.407022,891.88,825.55,13.92
7.422648,878.38,823.15,12.30
7.438275,878.71,825.73,12.56
7.453901,879.59,820.42,17.56
7.469528,871.56,818.85,16.41
7.485155,872.79,811.54,14.22
7.500781,864.63,808.63,13.96
7.516408,864.10,801.49,16.54
7.532035,862.78,801.40,15.19
7.547661,860.02,801.64,16.18
7.563288,858.99,793.90,19.09
7.578914,861.70,793.57,16.16
7.594541,854.76,794.13,14.35
7.610168,866.73,800.15,12.84
7.625794,863.84,798.42,13.03
7.641421,868.82,806.30,15.78
7.657048,872.58,811.31,14.29
7.672674,877.78,815.26,17.80
7.688301,883.65,824.73,15.57
7.703927,896.41,836.18,17.70
7.719554,896.81,845.43,11.91
7.735181,907.61,854.26,14.21
7.750807,915.14,864.89,17.42
7.766434,926.26,875.49,16.37
7.782061,932.69,889.81,14.77
7.797687,947.24,895.20,14.56
7.813314,953.00,900.68,14.51
7.828941,962.94,918.05,12.55
7.844567,962.26,924.50,13.59
7.860194,971.46,926.74,16.13
7.875820,975.53,928.61,10.59
7.891447,973.68,930.97,14.29
7.907074,969.93,934.24,13.56
7.922700,973.69,926.73,14.96
7.938327,966.49,930.21,12.35
7.953954,961.52,922.85,17.08
7.969580,956.89,912.00,13.32
7.985207,960.22,915.02,14.12
8.000833,957.05,903.75,16.93
8.016460,944.21,897.47,16.81
8.032087,939.94,887.82,15.02
8.047713,927.65,886.26,17.43
8.063340,926.28,880.31,15.21
8.078967,919.47,872.59,17.05
8.094593,914.52,871.19,17.01
8.110220,912.93,856.76,13.68
8.125846,910.20,852.28,14.38
8.141473,904.88,850.08,16.10
8.157100,902.98,847.20,13.86
8.172726,901.71,841.53,13.58
8.188353,892.46,839.20,16.66
8.203980,894.22,840.45,14.32
8.219606,887.85,845.97,16.93
8.235233,893.06,841.04,15.93
8.250859,890.70,829.85,15.14
8.266486,882.71,832.16,14.34
8.282113,886.84,825.32,15.07
8.297739,881.41,820.90,13.91
8.313366,874.13,823.77,15.66
8.328993,875.52,811.24,15.65
8.344619,871.72,810.06,14.62
8.360246,867.60,808.46,14.54
8.375872,870.19,808.53,15.24
8.391499,858.58,799.37,17.22
8.407126,861.74,792.27,10.94
8.422752,862.59,794.96,18.34
8.438379,855.33,795.71,21.78
8.454006,857.14,797.42,13.23
8.469632,858.92,793.49,18.50
8.485259,861.20,794.77,13.17
8.500886,866.35,803.57,14.45
8.516512,864.45,811.15,14.19
8.532139,873.54,819.76,12.47
8.547765,887.26,820.87,14.03
8.563392,887.60,835.58,12.60
8.579019,896.49,848.95,11.50
8.594645,908.15,855.73,13.00
8.610272,910.70,861.25,12.85
8.625899,921.89,873.59,19.20
8.641525,932.04,883.76,15.82
8.657152,942.08,893.70,13.32
8.672778,949.34,902.17,15.71
8.688405,956.67,910.27,13.49
8.704032,958.31,916.69,18.43
8.719658,967.22,918.05,15.33
8.735285,970.34,923.46,12.47
8.750912,964.34,926.86,11.78
8.766538,972.12,930.15,17.61
8.782165,973.36,929.03,17.83
8.797791,968.87,928.40,18.58
8.813418,967.49,925.25,13.04
8.829045,963.20,925.13,13.38
8.844671,953.82,913.15,15.68
8.860298,956.90,908.31,16.94
8.875925,946.30,901.27,15.76
8.891551,940.61,896.61,10.82
8.907178,929.59,886.57,18.78
8.922804,924.86,881.73,16.87
8.938431,919.71,872.47,13.26
8.954058,917.78,869.25,15.02
8.969684,914.87,861.91,15.81
8.985311,908.90,859.65,15.24
9.000938,904.77,846.69,13.07
9.016564,902.20,848.88,18.10
9.032191,904.70,845.61,16.44
9.047817,896.79,839.96,13.04
9.063444,895.68,838.24,13.72
9.079071,885.30,839.96,18.38
9.094697,888.87,834.92,17.42
9.110324,888.90,833.21,15.90
9.125951,889.00,833.30,16.54
9.141577,888.91,830.92,15.52
9.157204,880.77,827.25,13.59
9.172831,879.52,823.76,17.23
9.188457,874.27,810.78,14.99
9.204084,872.39,811.81,12.86
9.219710,867.11,808.75,15.80
9.235337,865.61,802.41,15.83
9.250964,863.90,801.59,18.14
9.266590,861.45,800.20,13.41
9.282217,858.05,795.43,13.54
9.297844,858.92,794.24,13.77
9.313470,856.22,796.29,16.02
9.329097,859.33,793.44,16.53
9.344723,861.72,794.86,17.21
9.360350,865.33,798.57,14.78
9.375977,869.37,808.96,13.42
9.391603,872.12,812.26,13.99
9.407230,876.56,816.87,16.33
9.422857,884.67,832.14,13.03
9.438483,893.69,836.09,15.83
9.454110,906.72,848.78,15.18
9.469736,911.86,857.93,14.79
9.485363,923.22,874.28,12.42
9.500990,933.70,880.55,13.58
9.516616,937.05,890.97,12.31
9.532243,945.31,901.38,15.44
9.547870,948.50,909.04,12.77
9.563496,962.37,912.07,13.98
9.579123,961.06,922.45,14.84
9.594749,970.06,926.70,13.74
9.610376,966.27,922.49,13.60
9.626003,967.57,930.68,14.60
9.641629,975.54,929.45,17.16
9.657256,966.90,929.46,12.14
9.672883,967.56,920.12,13.72
9.688509,963.79,919.48,13.58
9.704136,956.56,914.89,14.73
9.719762,945.65,907.04,11.28
9.735389,945.47,890.38,18.80
9.751016,939.69,896.80,14.75
9.766642,933.03,888.96,14.11
9.782269,931.39,881.81,15.17
9.797896,926.03,875.52,14.85
9.813522,915.00,873.11,14.44
9.829149,912.92,858.63,13.60
9.844775,910.90,854.88,12.84
9.860402,906.72,852.26,18.19
9.876029,903.57,845.60,14.26
9.891655,902.66,839.83,14.08
9.907282,898.14,843.17,13.89
9.922909,896.13,840.31,15.50
9.938535,895.69,834.73,13.16
9.954162,894.50,831.45,18.12
9.969789,885.52,831.26,17.10
9.985415,890.76,827.25,16.84
10.001042,885.00,822.20,13.21
10.016668,879.21,825.44,15.81
10.032295,876.46,821.91,11.83
10.047922,870.80,818.79,19.92
10.063548,875.98,813.01,18.90
10.079175,863.57,809.64,15.17
10.094802,869.37,804.37,16.53
10.110428,859.99,802.99,16.16
10.126055,861.16,798.06,17.26
10.141681,854.38,796.65,16.74
10.157308,854.05,793.91,17.78
10.172935,860.83,794.70,13.94
10.188561,861.80,787.84,13.99
10.204188,861.71,796.87,16.64
10.219815,856.75,807.31,17.85
10.235441,865.80,803.38,11.29
10.251068,867.93,813.23,12.36
10.266694,873.28,819.85,16.92
10.282321,886.70,825.80,14.42
10.297948,887.67,837.23,18.20
10.313574,901.79,853.32,11.76
10.329201,909.33,860.10,12.58
10.344828,912.56,867.43,14.04
10.360454,929.31,883.41,12.39
10.376081,935.13,884.27,15.59
10.391707,946.59,895.58,16.65
10.407334,953.27,904.43,10.90
10.422961,961.25,915.92,16.55
10.438587,958.22,919.43,18.30
10.454214,970.09,925.43,16.95
10.469841,964.42,926.27,14.77
10.485467,969.37,932.18,16.17
10.501094,971.15,928.14,15.40
10.516720,973.16,928.24,12.72
10.532347,965.54,923.70,13.64
10.547974,962.85,916.88,12.48
10.563600,959.37,913.69,19.59
10.579227,953.69,904.57,15.43
10.594854,945.50,904.73,11.96
10.610480,938.99,894.35,15.95
10.626107,931.80,881.79,17.63
10.641734,925.71,875.45,15.62
10.657360,923.85,875.31,15.50
10.672987,918.53,873.58,12.73
10.688613,912.59,860.67,16.58
10.704240,903.36,854.69,14.31
10.719867,906.67,849.57,14.57
10.735493,906.52,846.11,16.31
10.751120,902.48,841.60,16.09
10.766747,895.20,841.23,14.12
10.782373,898.82,835.03,14.81
10.798000,894.27,835.64,13.87
10.813626,887.94,834.90,12.81
10.829253,894.68,831.88,14.45
10.844880,884.29,827.72,16.92
10.860506,886.49,829.11,13.30
10.876133,880.28,825.51,12.91
10.891760,874.55,821.79,16.08
10.907386,877.79,816.93,14.55
10.923013,872.65,807.43,15.24
10.938639,869.95,812.63,13.56
10.954266,867.70,810.39,11.35
10.969893,860.76,799.35,18.15
10.985519,855.71,801.55,17.45
11.001146,859.30,795.28,16.72
11.016773,851.78,790.99,15.71
11.032399,850.83,791.65,12.19
11.048026,852.97,793.43,15.10
11.063652,859.20,795.86,12.17
11.079279,862.28,796.18,15.38
11.094906,866.20,804.98,19.28
11.110532,867.43,811.17,13.85
11.126159,877.33,815.59,13.96
11.141786,881.18,818.57,14.32
11.157412,886.62,825.84,13.25
11.173039,891.95,839.09,13.55
11.188665,907.92,853.09,14.15
11.204292,909.41,860.58,14.42
11.219919,925.00,867.09,16.26
11.235545,931.32,881.03,13.28
11.251172,940.22,893.91,14.44
11.266799,947.39,895.31,17.52
11.282425,954.80,917.19,17.79
11.298052,963.31,917.98,13.71
11.313679,963.36,924.64,13.59
11.329305,968.17,924.38,9.11
11.344932,967.38,928.34,15.44
11.360558,972.74,923.72,10.35
11.376185,968.12,930.79,17.48
11.391812,969.28,929.56,13.50
11.407438,963.31,920.10,13.67
11.423065,960.47,913.26,15.46
11.438692,954.53,909.93,16.29
11.454318,948.23,901.67,15.64
11.469945,943.80,894.57,15.73
11.485571,936.52,887.79,14.02
11.501198,931.04,881.30,12.84
11.516825,925.32,876.56,15.57
11.532451,919.94,873.82,16.18
11.548078,912.50,858.67,15.55
11.563705,908.82,862.92,14.12
11.579331,909.98,856.85,17.55
11.594958,901.21,849.91,14.86
11.610584,902.54,847.86,15.92
11.626211,898.36,840.84,12.13
11.641838,897.44,833.51,9.64
11.657464,888.49,834.13,16.53
11.673091,890.26,832.56,17.47
11.688718,890.39,829.82,15.06
11.704344,883.84,831.88,14.78
11.719971,886.04,826.91,14.52
11.735597,877.38,822.72,14.86
11.751224,879.80,815.03,16.16
11.766851,872.48,814.92,15.85
11.782477,871.25,816.70,11.13
11.798104,867.66,814.58,16.81
11.813731,866.04,805.86,11.32
11.829357,869.10,800.36,17.78
11.844984,864.74,798.66,14.08
11.860610,861.76,797.92,16.13
11.876237,854.48,795.76,15.75
11.891864,853.45,793.60,16.85
11.907490,850.45,788.69,15.57
11.923117,853.48,794.54,12.43
11.938744,858.30,796.29,13.56
11.954370,864.47,798.33,12.21
11.969997,861.27,798.55,10.67
11.985624,866.03,806.24,13.20
12.001250,881.27,824.78,13.36
12.016877,881.47,820.14,14.93
12.032503,889.85,832.77,13.49
12.048130,899.64,838.97,13.76
12.063757,905.89,852.37,16.90
12.079383,919.96,862.73,13.94
12.095010,921.69,874.43,15.96
12.110637,938.37,886.38,15.50
12.126263,943.73,891.76,15.37
12.141890,946.08,902.69,18.62
12.157516,959.19,913.55,13.13
12.173143,957.99,917.59,15.92
12.188770,967.56,917.98,19.05
12.204396,963.37,922.23,14.70
12.220023,968.26,921.46,12.89
12.235650,966.35,922.03,10.43
12.251276,965.75,924.51,12.72
12.266903,958.15,921.99,14.18
12.282529,961.96,916.40,14.21
12.298156,954.17,912.39,14.58
12.313783,944.00,901.86,15.70
12.329409,936.64,900.36,15.03
12.345036,941.72,895.62,16.08
12.360663,930.50,882.73,14.16
12.376289,925.17,877.63,12.68
12.391916,920.94,865.27,13.51
12.407542,911.12,863.22,13.36
12.423169,908.23,863.51,15.19
12.438796,914.55,854.20,15.39
12.454422,905.15,847.01,14.14
12.470049,899.31,846.83,16.42
12.485676,903.00,843.55,13.31
12.501302,891.42,842.56,12.23
12.516929,889.44,838.96,13.55
12.532555,891.51,836.29,14.65
12.548182,892.54,831.78,18.02
12.563809,886.54,825.77,13.09
12.579435,880.41,832.94,15.33
12.595062,880.01,818.81,12.06
12.610689,881.21,818.84,15.39
12.626315,875.68,816.27,19.13
12.641942,874.76,810.56,14.33
12.657568,868.24,810.00,19.58
12.673195,865.57,809.26,15.29
12.688822,866.49,800.50,15.67
12.704448,852.45,799.37,14.08
12.720075,855.30,796.64,16.60
12.735702,859.60,791.59,11.33
12.751328,852.67,791.82,14.73
12.766955,853.36,790.15,17.52
12.782582,855.23,789.80,12.74
12.798208,856.84,790.19,16.37
12.813835,855.13,795.45,17.37
12.829461,857.79,800.81,14.20
12.845088,866.54,802.14,10.14
12.860715,869.85,810.72,14.05
12.876341,871.23,823.26,15.87
12.891968,883.66,832.09,14.08
12.907595,896.36,833.51,15.24
12.923221,902.77,847.89,16.07
12.938848,909.93,858.59,15.12
12.954474,916.13,870.86,11.58
12.970101,931.01,883.27,15.43
12.985728,941.76,891.42,15.72
13.001354,950.41,898.44,13.47
13.016981,953.12,908.16,13.55
13.032608,954.53,907.08,14.06
13.048234,963.49,924.58,17.93
13.063861,964.06,923.92,21.54
13.079487,967.57,927.08,15.06
13.095114,971.48,921.29,12.20
13.110741,965.67,927.00,17.34
13.126367,965.36,920.09,10.96
13.141994,962.59,920.33,15.45
13.157621,959.92,919.22,17.46
13.173247,953.11,906.50,12.37
13.188874,946.06,892.13,17.41
13.204500,940.95,894.76,14.63
13.220127,932.54,880.88,14.15
13.235754,929.06,878.68,17.75
13.251380,919.58,872.64,14.36
13.267007,912.30,860.50,17.26
13.282634,908.99,863.13,15.16
13.298260,903.58,858.56,15.68
13.313887,904.45,855.51,17.62
13.329513,899.07,841.95,13.29
13.345140,896.43,842.26,12.83
13.360767,895.41,842.34,16.19
13.376393,891.84,835.63,20.38
13.392020,881.99,834.52,13.19
13.407647,887.65,830.23,17.94
13.423273,887.04,829.37,13.32
13.438900,881.26,821.82,17.57
13.454527,880.39,823.94,15.93
13.470153,877.05,817.56,12.72
13.485780,873.91,815.75,15.66
13.501406,871.77,819.89,14.62
13.517033,870.43,808.27,12.96
13.532660,864.30,807.22,13.44
13.548286,864.93,806.93,16.69
13.563913,856.74,794.06,15.89
13.579540,856.55,793.85,16.42
13.595166,852.80,790.77,11.95
13.610793,856.07,789.52,12.10
13.626419,852.64,790.75,12.35
13.642046,847.40,787.44,13.28
13.657673,856.29,788.63,16.10
13.673299,852.86,793.91,15.05
13.688926,856.63,794.85,19.41
13.704553,854.76,799.91,15.49
13.720179,859.89,807.47,18.10
13.735806,876.70,805.83,16.31
13.751432,882.14,827.80,15.37
13.767059,887.27,833.01,13.65
13.782686,895.90,844.00,15.31
13.798312,911.26,857.63,14.18
13.813939,913.21,862.22,19.70
13.829566,917.98,870.34,13.21
13.845192,927.45,886.01,17.79
13.860819,937.05,890.96,17.89
13.876445,947.13,902.07,11.28
13.892072,947.82,910.84,14.35
13.907699,957.31,916.98,17.40
13.923325,956.55,919.25,17.71
13.938952,962.57,919.62,16.29
13.954579,962.01,917.61,13.38
13.970205,957.29,919.76,14.65
13.985832,959.67,917.39,15.42
14.001458,959.18,914.83,15.38
14.017085,956.41,912.57,17.36
14.032712,952.27,907.40,14.24
14.048338,946.33,904.32,12.37
14.063965,942.61,894.59,18.27
14.079592,933.64,888.82,16.74
14.095218,925.75,883.57,12.85
14.110845,920.75,876.74,15.90
14.126472,915.26,866.31,11.92
14.142098,914.23,868.51,13.66
14.157725,905.14,854.83,16.71
14.173351,902.12,854.09,12.39
14.188978,898.67,846.97,19.04
14.204605,904.53,844.80,12.30
14.220231,887.37,839.05,14.80
14.235858,890.78,840.56,13.69
14.251485,888.66,836.13,13.92
14.267111,887.81,831.08,15.35
14.282738,885.36,831.03,16.11
14.298364,880.48,832.86,16.89
14.313991,881.03,822.91,15.48
14.329618,876.35,820.48,17.09
14.345244,874.89,816.95,16.14
14.360871,875.96,813.91,17.02
14.376498,868.93,809.47,11.03
14.392124,872.22,809.05,12.16
14.407751,865.57,802.34,16.76
14.423377,859.59,801.47,15.13
14.439004,859.80,796.07,13.60
14.454631,851.32,788.00,12.07
14.470257,849.18,790.19,12.86
14.485884,848.14,788.63,12.61
14.501511,845.20,785.90,13.41
14.517137,850.64,787.28,12.53
14.532764,854.02,794.31,17.40
14.548390,851.42,785.50,14.36
14.564017,859.64,794.79,14.33
14.579644,863.21,807.30,15.61
14.595270,866.74,806.78,14.15
14.610897,873.79,808.05,14.98
14.626524,877.20,823.51,13.44
14.642150,889.43,831.61,16.53
14.657777,892.17,840.80,15.66
14.673403,902.91,850.67,15.83
14.689030,910.99,866.41,14.44
14.704657,923.35,873.45,15.66
14.720283,931.48,886.79,14.25
14.735910,938.27,898.35,13.38
14.751537,945.70,903.63,12.90
14.767163,951.79,911.12,12.37
14.782790,954.47,917.63,17.85
14.798417,957.62,914.98,16.64
14.814043,964.93,918.84,17.09
14.829670,967.78,924.65,16.09
14.845296,959.93,916.85,15.63
14.860923,963.33,917.11,14.40
14.876550,956.53,911.84,14.15
14.892176,954.47,913.40,15.68
14.907803,947.18,904.82,11.94
14.923430,943.78,900.47,14.54
14.939056,939.93,889.65,16.00
14.954683,928.22,888.25,13.54
14.970309,924.25,876.90,10.58
14.985936,927.58,874.10,19.10
15.001563,915.50,865.99,16.55
15.017189,911.98,861.45,12.18
15.032816,905.15,852.83,13.42
15.048443,899.45,853.14,16.13
15.064069,896.92,844.89,16.41
15.079696,897.71,841.51,14.27
15.095322,894.04,834.66,15.66
15.110949,889.67,837.68,17.08
15.126576,891.90,829.11,15.22
15.142202,882.89,828.38,15.39
15.157829,882.04,826.22,10.99
15.173456,881.90,826.79,17.14
15.189082,876.62,829.72,17.61
15.204709,877.97,816.10,17.92
15.220335,871.62,818.36,14.99
15.235962,871.23,812.70,17.61
15.251589,869.81,808.40,14.98
15.267215,868.13,801.82,14.44
15.282842,858.55,803.69,16.31
15.298469,862.23,800.07,14.52
15.314095,859.67,801.64,14.33
15.329722,851.01,793.94,17.16
15.345348,850.09,791.64,17.11
15.360975,850.19,785.93,17.32
15.376602,847.05,780.63,12.95
15.392228,844.67,785.82,12.93
15.407855,849.59,786.39,13.37
15.423482,853.69,788.53,15.70
15.439108,852.18,792.48,12.09
15.454735,855.39,796.63,15.89
15.470361,862.55,807.64,11.61
15.485988,871.50,812.80,15.87
15.501615,880.37,819.26,15.14
15.517241,885.53,837.08,15.26
15.532868,896.42,842.74,14.04
15.548495,904.36,853.39,12.75
15.564121,912.70,863.49,13.94
15.579748,917.98,878.31,13.99
15.595375,929.87,881.05,13.39
15.611001,939.21,895.66,15.60
15.626628,941.45,901.47,13.91
15.642254,953.54,905.36,16.59
15.657881,957.70,916.15,12.27
15.673508,963.10,915.09,15.87
15.689134,957.79,919.25,10.86
15.704761,965.39,919.64,12.27
15.720388,957.94,916.92,10.11
15.736014,956.81,921.09,14.70
15.751641,957.08,920.77,11.86
15.767267,956.76,912.53,13.77
15.782894,953.91,902.10,13.37
15.798521,946.42,896.56,13.67
15.814147,938.37,888.08,19.32
15.829774,927.68,883.80,19.45
15.845401,925.69,874.65,15.01
15.861027,918.01,869.81,14.42
15.876654,909.93,859.87,13.38
15.892280,909.33,854.45,17.56
15.907907,903.32,853.13,15.57
15.923534,898.81,846.88,16.76
15.939160,893.06,844.79,16.17
15.954787,897.43,840.89,14.31
15.970414,888.11,828.57,18.64
15.986040,887.28,837.36,14.05
16.001667,883.68,833.08,14.15
16.017293,881.82,822.84,19.96
16.032920,886.27,826.66,16.18
16.048547,877.79,823.07,14.18
16.064173,873.96,819.05,16.21
16.079800,874.93,816.28,12.42
16.095427,870.03,812.33,14.70
16.111053,869.64,813.53,14.33
16.126680,866.90,806.64,13.21
16.142306,861.56,808.49,16.16
16.157933,858.82,804.39,14.43
16.173560,853.07,798.89,12.52
16.189186,854.39,796.23,14.40
16.204813,853.87,789.11,13.87
16.220440,849.08,789.69,17.27
16.236066,848.65,785.14,20.52
16.251693,843.49,780.89,15.25
16.267320,843.91,786.14,12.43
16.282946,842.20,784.30,19.72
16.298573,848.68,788.37,15.30
16.314199,854.32,787.76,16.53
16.329826,858.46,797.95,15.76
16.345453,863.57,800.03,17.06
16.361079,866.38,818.33,17.85
16.376706,879.74,820.94,13.79
16.392333,879.09,829.74,11.27
16.407959,888.88,836.62,13.29
16.423586,907.23,857.11,13.96
16.439212,911.48,864.44,15.10
16.454839,917.95,869.03,15.92
16.470466,929.82,878.69,13.99
16.486092,935.39,890.92,9.34
16.501719,942.74,901.91,15.49
16.517346,946.52,903.06,13.08
16.532972,947.03,915.65,12.67
16.548599,952.85,913.48,14.54
16.564225,961.04,919.72,19.23
16.579852,954.90,919.35,16.74
16.595479,956.68,916.38,14.21
16.611105,955.05,921.57,12.95
16.626732,953.37,910.57,17.61
16.642359,946.43,912.84,17.33
16.657985,947.08,907.31,11.72
16.673612,937.75,901.29,14.95
16.689238,931.60,889.18,12.77
16.704865,930.23,881.65,14.08
16.720492,920.77,873.84,15.51
16.736118,914.18,870.79,17.77
16.751745,909.01,863.76,14.91
16.767372,906.67,852.29,15.70
16.782998,899.24,852.63,13.82
16.798625,891.91,847.41,12.56
16.814251,894.12,841.13,13.61
16.829878,891.93,841.08,14.56
16.845505,886.06,832.19,14.93
16.861131,887.06,837.70,13.95
16.876758,885.22,829.39,11.50
16.892385,875.17,825.05,17.85
16.908011,876.42,820.52,14.17
16.923638,878.40,822.54,16.54
16.939265,872.71,815.53,13.83
16.954891,870.41,817.84,13.11
16.970518,868.02,813.74,12.78
16.986144,866.64,808.90,12.65
17.001771,862.76,805.99,15.86
17.017398,866.07,798.50,11.77
17.033024,856.24,797.02,14.56
17.048651,850.19,793.77,13.19
17.064278,856.18,792.57,17.15
17.079904,847.86,791.16,15.49
17.095531,851.10,783.99,13.16
17.111157,844.72,781.31,17.66
17.126784,849.30,784.22,14.82
17.142411,842.86,787.92,17.77
17.158037,846.17,784.07,15.84
17.173664,850.23,790.26,13.36
17.189291,853.79,790.40,16.95
17.204917,854.09,802.43,15.50
17.220544,864.08,801.38,16.80
17.236170,868.72,811.00,15.86
17.251797,880.86,816.57,12.65
17.267424,884.28,833.38,14.20
17.283050,892.90,839.98,11.35
17.298677,899.07,849.10,16.63
17.314304,916.36,861.95,15.42
17.329930,917.06,870.06,19.01
17.345557,932.24,885.52,12.47
17.361183,931.10,891.15,14.43
17.376810,941.95,894.31,18.09
17.392437,952.26,907.93,14.90
17.408063,954.08,909.89,21.67
17.423690,954.46,918.89,16.36
17.439317,955.71,914.71,16.58
17.454943,958.44,916.09,18.27
17.470570,956.10,914.27,17.65
17.486196,952.00,915.84,13.92
17.501823,950.84,903.75,15.58
17.517450,943.51,904.85,12.86
17.533076,937.37,904.02,16.95
17.548703,942.11,892.08,14.13
17.564330,930.16,886.85,21.04
17.579956,921.68,878.04,13.05
17.595583,918.08,872.92,14.43
17.611210,913.22,864.31,15.50
17.626836,906.64,858.57,12.37
17.642463,902.76,850.60,19.77
17.658089,897.55,846.18,17.12
17.673716,893.80,842.06,14.15
17.689343,884.86,841.39,13.45
17.704969,888.92,836.17,13.32
17.720596,885.94,834.06,17.97
17.736223,877.85,831.36,12.80
17.751849,880.09,824.37,13.07
17.767476,874.29,825.16,13.33
17.783102,882.22,822.92,14.48
17.798729,871.18,817.77,15.36
17.814356,868.47,819.97,17.04
17.829982,867.91,812.75,16.04
17.845609,864.55,813.18,16.22
17.861236,863.00,806.96,16.16
17.876862,856.96,804.85,16.98
17.892489,861.03,799.22,13.47
17.908115,858.11,795.86,15.76
17.923742,854.66,792.48,16.03
17.939369,846.66,789.54,13.53
17.954995,841.00,780.43,16.04
17.970622,844.63,782.40,17.16
17.986249,842.63,785.93,13.70
18.001875,846.00,789.82,16.50
18.017502,844.47,780.73,15.45
18.033128,845.78,790.36,11.19
18.048755,844.61,786.40,15.45
18.064382,844.62,789.84,16.33
18.080008,853.74,796.80,16.96
18.095635,859.88,803.55,17.82
18.111262,862.94,809.81,12.04
18.126888,877.32,820.68,14.57
18.142515,887.65,826.66,12.90
18.158141,893.15,844.92,16.18
18.173768,898.38,850.42,18.25
18.189395,910.05,858.21,13.81
18.205021,917.20,875.29,17.91
18.220648,927.36,883.06,14.87
18.236275,930.25,891.90,17.20
18.251901,944.28,897.57,14.04
18.267528,944.34,906.37,14.96
18.283154,952.34,912.28,12.80
18.298781,954.75,916.51,15.58
18.314408,960.74,918.54,12.81
18.330034,956.40,912.43,12.65
18.345661,952.73,911.53,12.59
18.361288,952.78,905.61,12.81
18.376914,950.95,907.52,12.35
18.392541,941.94,899.63,17.95
18.408168,940.71,905.06,14.32
18.423794,931.49,895.04,16.71
18.439421,925.53,890.13,17.75
18.455047,922.44,877.46,17.92
18.470674,918.35,864.63,11.88
18.486301,911.28,863.47,17.36
18.501927,908.11,863.28,13.87
18.517554,899.01,847.15,13.70
18.533181,897.63,852.40,13.38
18.548807,893.68,840.94,11.93
18.564434,893.93,839.96,13.66
18.580060,886.29,834.58,15.97
18.595687,882.51,831.79,12.30
18.611314,877.32,829.99,15.18
18.626940,876.65,828.65,13.57
18.642567,878.00,824.39,16.64
18.658194,876.00,826.49,16.85
18.673820,871.90,821.13,17.20
18.689447,869.81,820.77,17.30
18.705073,868.35,819.68,14.86
18.720700,862.20,810.10,15.39
18.736327,865.31,801.47,13.68
18.751953,858.58,801.60,15.69
18.767580,854.20,801.57,10.92
18.783207,852.92,795.54,16.77
18.798833,845.68,795.32,15.42
18.814460,847.51,788.06,15.19
18.830086,838.02,787.34,13.34
18.845713,842.85,785.15,16.05
18.861340,840.47,781.46,12.38
18.876966,841.65,776.28,12.07
18.892593,845.37,782.84,14.13
18.908220,846.68,783.47,14.00
18.923846,847.64,790.13,14.89
18.939473,849.46,790.83,14.93
18.955099,857.16,798.06,17.25
18.970726,860.70,805.34,14.59
18.986353,873.26,810.49,13.38
19.001979,876.60,822.93,11.23
19.017606,885.16,829.29,16.96
19.033233,898.52,842.86,12.48
19.048859,902.85,856.37,12.12
19.064486,911.56,866.35,14.97
19.080113,922.68,878.66,15.65
19.095739,926.81,888.25,15.82
19.111366,935.98,889.87,13.37
19.126992,943.58,896.51,18.68
19.142619,946.93,904.57,14.47
19.158246,944.24,911.47,13.03
19.173872,951.01,917.50,11.75
19.189499,953.00,913.61,15.07
19.205126,954.49,915.04,13.60
19.220752,960.49,908.27,17.37
19.236379,949.20,910.96,16.54
19.252005,948.78,911.57,16.63
19.267632,942.02,899.69,13.75
19.283259,940.67,902.25,17.03
19.298885,936.55,894.84,17.41
19.314512,929.94,875.85,13.07
19.330139,913.78,875.16,14.78
19.345765,920.84,869.70,14.63
19.361392,907.01,865.46,17.07
19.377018,903.44,859.94,14.28
19.392645,899.52,854.73,16.63
19.408272,891.18,846.59,15.61
19.423898,892.83,843.36,17.09
19.439525,888.87,835.85,16.26
19.455152,888.19,835.47,16.00
19.470778,885.18,833.36,11.52
19.486405,880.81,825.85,11.42
19.502031,877.36,820.33,14.75
19.517658,877.00,827.03,11.13
19.533285,876.16,825.98,14.93
19.548911,880.28,815.16,15.58
19.564538,868.59,813.45,15.55
19.580165,869.52,813.56,18.77
19.595791,864.42,806.07,14.00
19.611418,862.69,811.68,11.88
19.627044,856.50,800.85,14.85
19.642671,854.11,798.01,17.45
19.658298,850.53,795.34,13.90
19.673924,848.18,793.11,15.70
19.689551,846.60,784.94,16.46
19.705178,836.84,782.63,12.63
19.720804,841.63,784.64,14.69
19.736431,842.76,782.95,14.44
19.752058,835.34,779.15,17.69
19.767684,835.47,784.80,14.39
19.783311,844.23,787.98,15.22
19.798937,841.91,780.76,14.03
19.814564,844.61,793.87,12.55
19.830191,847.35,796.07,11.33
19.845817,858.24,803.86,14.99
19.861444,862.28,815.88,14.37
19.877071,872.97,820.10,15.50
19.892697,884.11,829.33,14.92
19.908324,883.88,843.01,14.56
19.923950,899.97,849.81,14.77
19.939577,908.71,860.32,13.75
19.955204,919.31,875.40,12.15
19.970830,924.80,881.91,14.27
19.986457,930.48,890.89,18.93
20.002084,942.67,899.30,16.69
20.017710,950.46,908.11,16.41
20.033337,956.07,906.83,14.84
20.048963,947.46,910.54,15.42
20.064590,952.07,913.16,13.18
20.080217,949.24,916.86,16.98
20.095843,955.87,915.91,14.61
20.111470,946.36,911.45,13.29
20.127097,946.15,911.50,14.59
20.142723,949.13,907.36,14.99
20.158350,938.89,894.81,15.78
20.173976,931.48,891.54,19.09
20.189603,927.47,884.78,13.78
20.205230,915.97,881.90,12.50
20.220856,921.51,868.88,15.37
20.236483,916.54,862.76,15.55
20.252110,904.53,862.08,16.85
20.267736,897.60,853.50,11.20
20.283363,891.83,848.93,13.78
20.298989,889.45,846.03,16.02
20.314616,889.29,836.06,13.52
20.330243,886.14,836.81,12.45
20.345869,881.10,831.84,14.67
20.361496,879.48,826.45,18.20
20.377123,882.09,825.57,13.14
20.392749,869.52,820.07,15.51
20.408376,875.98,819.11,17.00
20.424003,869.89,819.21,14.11
20.439629,867.39,814.37,18.76
20.455256,870.39,814.89,15.99
20.470882,862.71,809.99,18.02
20.486509,861.31,804.67,14.75
20.502136,859.85,800.40,16.25
20.517762,856.33,802.46,15.23
20.533389,850.10,794.90,15.26
20.549016,847.48,787.20,16.71
20.564642,843.39,788.24,15.09
20.580269,842.83,787.82,13.40
20.595895,843.36,785.18,15.30
20.611522,839.46,779.49,14.97
20.627149,835.53,775.35,18.97
20.642775,834.89,780.92,15.67
20.658402,842.05,782.77,10.92
20.674029,840.13,783.50,13.19
20.689655,848.58,788.36,17.83
20.705282,847.37,797.12,14.14
20.720908,859.51,806.26,14.32
20.736535,859.05,810.69,13.55
20.752162,873.66,810.86,14.52
20.767788,870.35,826.59,15.28
20.783415,883.94,832.85,12.85
20.799042,897.90,851.36,18.52
20.814668,904.72,852.10,15.20
20.830295,917.81,874.07,16.13
20.845921,927.36,885.47,14.30
20.861548,931.50,888.56,14.32
20.877175,934.49,896.29,15.65
20.892801,944.95,904.50,14.24
20.908428,945.76,914.05,16.01
20.924055,946.99,914.64,15.49
20.939681,950.08,912.57,14.67
20.955308,956.50,918.01,18.05
20.970934,951.26,915.36,14.76
20.986561,955.97,909.23,14.12
21.002188,943.09,904.44,17.28
21.017814,944.47,907.22,13.83
21.033441,937.74,898.72,16.00
21.049068,940.54,891.35,16.82
21.064694,926.83,890.12,14.63
21.080321,919.89,873.59,14.54
21.095947,918.06,870.92,17.96
21.111574,906.18,869.43,17.46
21.127201,907.35,858.83,16.49
21.142827,905.36,857.92,14.74
21.158454,897.94,847.03,16.27
21.174081,890.59,847.23,8.75
21.189707,890.22,837.77,17.17
21.205334,882.56,836.13,16.26
21.220961,882.17,836.88,13.83
21.236587,873.56,827.93,18.07
21.252214,877.03,826.97,17.74
21.267840,881.26,825.82,15.39
21.283467,877.02,819.76,13.17
21.299094,873.64,819.12,16.99
21.314720,872.07,818.39,14.30
21.330347,869.46,813.62,12.09
21.345974,866.80,817.45,14.13
21.361600,860.95,803.02,13.06
21.377227,857.56,803.61,15.73
21.392853,861.18,805.85,14.42
21.408480,854.86,795.59,12.07
21.424107,851.27,799.42,15.43
21.439733,842.61,795.99,17.70
21.455360,845.13,791.61,14.45
21.470987,841.65,781.23,15.22
21.486613,838.80,785.53,19.46
21.502240,833.32,777.50,13.44
21.517866,834.27,785.67,14.16
21.533493,833.36,782.54,18.07
21.549120,839.77,786.58,12.14
21.564746,838.32,789.73,11.52
21.580373,851.15,790.73,11.60
21.596000,852.46,797.33,16.83
21.611626,861.74,807.10,16.85
21.627253,863.78,813.50,15.70
21.642879,883.81,827.12,17.22
21.658506,884.75,835.30,16.24
21.674133,894.80,843.51,14.42
21.689759,900.59,856.64,14.23
21.705386,913.39,864.01,18.51
21.721013,921.51,876.81,12.74
21.736639,926.44,886.41,14.09
21.752266,930.75,896.64,15.05
21.767892,946.01,904.84,16.63
21.783519,944.84,906.84,11.84
21.799146,952.08,913.38,17.97
21.814772,951.17,911.56,11.84
21.830399,952.88,915.73,14.77
21.846026,952.03,911.75,14.79
21.861652,948.68,910.94,14.93
21.877279,947.87,911.01,15.84
21.892906,942.87,909.32,15.54
21.908532,943.15,901.64,12.57
21.924159,929.57,893.25,14.86
21.939785,934.94,892.17,15.76
21.955412,925.75,881.74,15.75
21.971039,918.52,872.81,18.18
21.986665,909.05,862.89,15.47
22.002292,909.58,865.87,14.39
22.017919,900.89,854.93,15.32
22.033545,902.27,854.25,20.08
22.049172,892.47,841.32,16.01
22.064798,891.89,844.22,15.83
22.080425,888.99,834.81,13.14
22.096052,883.62,832.23,13.75
22.111678,875.63,824.30,14.13
22.127305,878.90,824.88,15.83
22.142932,871.27,823.17,14.64
22.158558,875.92,824.44,17.64
22.174185,867.65,815.81,17.76
22.189811,871.90,822.16,14.85
22.205438,869.68,815.85,14.66
22.221065,863.82,813.12,12.36
22.236691,859.32,808.19,14.40
22.252318,858.13,805.12,13.37
22.267945,859.92,802.80,15.16
22.283571,857.64,799.11,13.81
22.299198,852.58,793.99,14.26
22.314824,845.25,792.67,15.95
22.330451,843.69,785.50,14.69
22.346078,840.48,788.21,12.03
22.361704,837.44,786.60,16.59
22.377331,839.33,783.18,17.17
22.392958,834.48,784.12,16.82
22.408584,840.46,781.23,12.20
22.424211,841.22,784.32,14.92
22.439837,843.16,785.05,16.35
22.455464,847.93,793.22,16.96
22.471091,849.05,799.26,14.32
22.486717,857.83,802.94,16.32
22.502344,865.05,811.35,14.32
22.517971,870.07,817.18,14.22
22.533597,882.17,834.31,16.22
22.549224,889.11,843.30,16.74
22.564851,894.46,847.10,16.02
22.580477,909.52,865.67,12.33
22.596104,912.54,870.35,14.61
22.611730,920.57,884.61,18.31
22.627357,928.02,889.06,12.77
22.642984,935.10,897.68,14.58
22.658610,946.77,903.83,11.09
22.674237,946.30,905.83,13.76
22.689864,950.55,916.28,14.34
22.705490,954.16,916.07,15.47
22.721117,954.55,914.27,15.83
22.736743,957.22,913.33,12.14
22.752370,949.20,910.41,14.79
22.767997,942.78,904.51,13.25
22.783623,942.06,905.25,12.35
22.799250,938.22,896.71,16.96
22.814877,928.46,890.85,14.92
22.830503,928.07,880.38,11.55
22.846130,917.27,882.86,18.67
22.861756,911.19,870.40,13.28
22.877383,913.82,864.92,11.84
22.893010,902.60,858.87,16.57
22.908636,901.68,851.69,13.25
22.924263,892.84,851.47,18.03
22.939890,892.81,842.67,15.46
22.955516,889.30,837.22,16.69
22.971143,883.12,830.86,18.01
22.986769,884.62,832.82,16.63
23.002396,881.33,833.65,15.99
23.018023,874.47,834.82,16.56
23.033649,873.13,827.43,16.14
23.049276,874.84,822.28,17.19
23.064903,866.32,817.08,13.76
23.080529,873.38,812.21,12.55
23.096156,866.74,815.40,15.17
23.111782,861.65,807.96,15.08
23.127409,861.32,811.09,14.15
23.143036,858.57,802.83,13.52
23.158662,856.91,800.67,14.99
23.174289,849.11,800.42,13.82
23.189916,851.75,789.91,14.49
23.205542,846.16,790.77,15.62
23.221169,841.55,786.52,16.51
23.236795,843.67,783.00,19.84
23.252422,843.92,785.77,14.22
23.268049,844.11,782.59,15.00
23.283675,838.99,781.17,17.48
23.299302,840.88,783.75,10.41
23.314929,844.39,785.17,13.66
23.330555,844.99,789.89,15.80
23.346182,850.66,795.01,15.66
23.361809,855.19,803.83,14.74
23.377435,864.80,816.97,15.05
23.393062,867.67,818.92,13.77
23.408688,875.21,831.02,15.92
23.424315,885.20,843.26,17.48
23.439942,891.32,847.52,13.86
23.455568,904.89,860.25,12.57
23.471195,910.06,871.74,16.89
23.486822,923.61,875.94,15.14
23.502448,927.92,890.02,15.48
23.518075,936.11,896.78,13.45
23.533701,939.50,906.72,15.92
23.549328,943.99,909.00,11.81
23.564955,951.89,910.88,16.12
23.580581,954.86,917.64,14.49
23.596208,956.77,919.42,14.18
23.611835,952.02,921.77,16.28
23.627461,953.09,914.56,16.82
23.643088,943.82,914.54,16.14
23.658714,948.18,904.55,14.85
23.674341,942.48,901.74,15.26
23.689968,931.40,893.67,11.87
23.705594,929.78,887.43,15.10
23.721221,923.09,880.66,13.16
23.736848,915.93,874.20,16.27
23.752474,910.41,871.13,16.50
23.768101,912.41,865.23,18.11
23.783727,897.91,856.75,12.29
23.799354,896.14,851.31,15.43
23.814981,890.01,843.91,14.71
23.830607,890.45,840.51,14.85
23.846234,887.09,839.35,13.13
23.861861,882.39,833.96,16.88
23.877487,873.96,830.41,18.60
23.893114,876.50,822.90,16.95
23.908740,879.32,829.38,16.93
23.924367,877.27,826.61,14.55
23.939994,873.55,818.47,18.07
23.955620,867.08,818.95,15.43
23.971247,869.91,817.53,11.15
23.986874,860.31,811.50,15.52
24.002500,858.92,809.35,12.25
24.018127,856.32,805.35,18.22
24.033754,859.70,802.71,11.64
24.049380,849.80,798.83,14.90
24.065007,846.91,790.41,14.88
24.080633,845.57,793.64,15.15
24.096260,840.43,785.82,15.73
24.111887,838.63,782.13,15.65
24.127513,839.42,783.50,14.95
24.143140,836.35,786.99,14.03
24.158767,838.54,781.58,12.03
24.174393,837.76,786.63,16.53
24.190020,840.66,784.08,13.47
24.205646,844.29,790.46,14.00
24.221273,846.65,793.44,14.21
24.236900,852.12,804.00,18.94
24.252526,857.26,805.26,13.95
24.268153,873.93,819.54,18.24
24.283780,881.72,825.17,14.80
24.299406,885.26,840.69,17.64
24.315033,894.33,850.37,16.15
24.330659,902.91,858.30,18.50
24.346286,906.88,871.15,13.99
24.361913,923.04,882.53,14.02
24.377539,926.90,886.73,14.27
24.393166,934.62,894.63,17.76
24.408793,945.17,903.13,13.93
24.424419,943.05,903.66,15.23
24.440046,956.64,916.66,17.16
24.455672,948.91,915.31,14.94
24.471299,957.02,916.62,14.83
24.486926,952.02,912.05,12.28
24.502552,951.75,921.70,17.40
24.518179,944.67,908.47,13.21
24.533806,942.43,910.63,13.38
24.549432,940.82,905.27,18.11
24.565059,936.25,897.03,15.47
24.580685,929.56,895.47,15.01
24.596312,926.38,885.18,16.58
24.611939,917.19,871.71,16.82
24.627565,913.29,870.38,19.05
24.643192,908.27,861.15,15.82
24.658819,903.68,855.33,19.82
24.674445,896.25,851.60,8.79
24.690072,889.26,848.95,12.96
24.705699,890.17,842.59,15.16
24.721325,890.07,835.38,16.14
24.736952,885.71,835.29,15.77
24.752578,882.35,832.21,11.28
24.768205,876.84,826.49,12.77
24.783832,876.46,826.64,16.90
24.799458,874.95,825.70,16.62
24.815085,873.66,822.71,16.59
24.830712,869.82,822.01,14.97
24.846338,874.29,820.99,18.16
24.861965,866.62,816.59,13.65
24.877591,862.48,812.18,15.57
24.893218,864.90,809.83,17.13
24.908845,858.44,803.50,17.67
24.924471,849.23,801.32,16.72
24.940098,854.63,795.87,16.14
24.955725,848.75,790.01,14.46
24.971351,849.65,785.86,13.36
24.986978,846.91,793.70,15.73
25.002604,840.53,785.64,16.72
25.018231,838.96,781.79,13.83
25.033858,837.14,786.18,13.95
25.049484,840.81,784.22,14.14
25.065111,840.04,784.49,17.11
25.080738,844.78,788.90,13.56
25.096364,848.85,796.46,16.16
25.111991,859.97,804.25,18.03
25.127617,860.31,811.45,15.75
25.143244,868.81,815.70,15.07
25.158871,875.53,827.50,15.73
25.174497,883.01,834.74,15.29
25.190124,889.50,849.47,15.79
25.205751,902.38,856.57,12.59
25.221377,907.81,869.98,10.59
25.237004,918.94,882.34,17.65
25.252630,929.24,889.69,15.84
25.268257,933.59,897.70,16.54
25.283884,942.97,901.74,14.68
25.299510,948.59,910.32,17.05
25.315137,948.69,913.70,14.41
25.330764,958.23,913.54,17.74
25.346390,953.67,917.55,15.46
25.362017,954.47,919.29,15.63
25.377644,950.96,913.73,13.82
25.393270,946.34,913.22,15.97
25.408897,946.46,907.03,15.12
25.424523,940.21,905.23,14.44
25.440150,940.18,898.95,14.88
25.455777,934.70,887.27,11.62
25.471403,927.12,882.98,13.26
25.487030,925.26,876.19,12.29
25.502657,913.74,872.06,13.43
25.518283,911.98,860.92,13.64
25.533910,909.00,857.42,13.76
25.549536,895.37,857.56,15.74
25.565163,893.04,849.54,12.14
25.580790,890.16,841.60,16.81
25.596416,890.69,840.85,18.12
25.612043,884.32,838.62,16.78
25.627670,882.81,832.48,16.93
25.643296,880.93,834.10,12.09
25.658923,876.39,830.22,13.56
25.674549,876.99,823.25,18.66
25.690176,878.25,821.49,13.57
25.705803,874.72,825.55,16.74
25.721429,868.17,825.13,15.84
25.737056,869.99,813.58,13.92
25.752683,858.73,818.21,16.20
25.768309,865.12,809.35,13.49
25.783936,859.51,807.13,13.39
25.799562,853.90,803.03,19.04
25.815189,852.09,800.02,16.71
25.830816,857.94,792.29,13.56
25.846442,847.66,793.20,13.78
25.862069,840.11,784.69,22.23
25.877696,837.74,783.07,12.81
25.893322,844.59,782.32,15.69
25.908949,835.68,783.49,14.47
25.924575,844.20,784.65,15.22
25.940202,837.53,791.23,16.24
25.955829,845.97,789.92,13.31
25.971455,844.98,792.73,15.24
25.987082,857.53,801.30,17.10
26.002709,862.13,811.09,15.51
26.018335,860.93,820.43,15.04
26.033962,877.63,827.05,15.40
26.049588,882.00,833.60,16.71
26.065215,895.09,850.80,15.97
26.080842,904.83,862.83,14.89
26.096468,910.10,871.53,14.74
26.112095,920.21,877.22,13.33
26.127722,923.80,885.77,17.75
26.143348,933.87,894.79,17.01
26.158975,942.53,898.98,15.21
26.174602,946.38,907.55,16.14
26.190228,947.19,907.75,19.45
26.205855,950.87,918.79,16.16
26.221481,954.16,910.58,14.72
26.237108,956.54,921.64,15.02
26.252735,955.88,913.39,12.90
26.268361,953.61,919.86,18.98
26.283988,948.92,910.83,14.24
26.299615,939.83,906.08,13.38
26.315241,940.84,900.15,17.59
26.330868,929.77,892.45,13.92
26.346494,929.70,896.65,15.65
26.362121,922.26,883.71,18.39
26.377748,919.89,870.47,12.14
26.393374,910.99,867.89,12.07
26.409001,905.25,861.81,11.34
26.424628,900.95,858.66,10.88
26.440254,899.17,851.75,17.36
26.455881,894.98,847.39,15.91
26.471507,890.40,842.68,17.36
26.487134,884.27,835.72,14.41
26.502761,880.97,835.83,12.16
26.518387,881.86,825.14,13.82
26.534014,877.14,830.74,11.50
26.549641,871.79,825.86,18.36
26.565267,881.87,823.58,15.44
26.580894,875.30,823.45,15.63
26.596520,868.96,823.01,14.31
26.612147,867.89,819.53,14.67
26.627774,867.60,811.94,16.46
26.643400,862.35,810.72,13.54
26.659027,863.81,812.71,15.49
26.674654,855.41,805.18,15.60
26.690280,856.20,799.60,15.05
26.705907,845.94,790.15,15.39
26.721533,847.59,796.87,12.97
26.737160,842.16,787.34,12.85
26.752787,848.67,791.34,13.93
26.768413,843.45,784.07,17.27
26.784040,843.04,782.34,18.73
26.799667,846.82,791.88,12.90
26.815293,847.69,789.27,14.91
26.830920,845.82,792.63,14.55
26.846547,852.79,799.68,15.41
26.862173,853.53,800.45,15.05
26.877800,857.89,806.00,17.76
26.893426,864.84,814.73,16.22
26.909053,875.48,822.00,14.92
26.924680,879.27,833.44,15.76
26.940306,891.86,842.40,15.69
26.955933,892.75,859.28,16.46
26.971560,909.81,866.29,14.91
26.987186,919.50,873.30,17.35
27.002813,925.66,883.88,15.43
27.018439,934.72,889.95,15.49
27.034066,937.39,903.10,16.45
27.049693,945.20,910.31,18.88
27.065319,952.48,917.10,18.00
27.080946,950.20,920.32,19.18
27.096573,957.24,920.93,16.93
27.112199,953.74,919.01,11.69
27.127826,956.89,919.24,16.24
27.143452,955.01,916.84,14.42
27.159079,950.51,911.55,18.21
27.174706,949.51,909.98,14.44
27.190332,941.38,908.11,12.33
27.205959,939.00,895.22,18.88
27.221586,927.47,891.50,16.23
27.237212,926.85,881.26,13.91
27.252839,919.77,876.83,12.58
27.268465,922.11,868.27,13.84
27.284092,904.01,860.40,16.13
27.299719,902.93,864.18,13.18
27.315345,894.77,857.80,13.51
27.330972,898.70,846.39,12.94
27.346599,893.48,845.34,15.04
27.362225,889.15,846.25,18.14
27.377852,889.03,838.39,13.64
27.393478,882.38,829.27,17.78
27.409105,882.24,834.12,14.64
27.424732,877.63,826.87,16.00
27.440358,877.73,823.62,15.89
27.455985,880.56,822.78,13.21
27.471612,876.55,822.63,15.29
27.487238,873.35,817.91,12.38
27.502865,864.54,819.77,16.87
27.518492,865.49,816.29,16.96
27.534118,865.90,808.58,13.48
27.549745,857.09,807.96,16.00
27.565371,854.16,808.26,16.12
27.580998,853.35,793.18,16.29
27.596625,850.09,787.59,10.62
27.612251,848.65,796.24,14.77
27.627878,841.12,787.93,17.53
27.643505,844.17,796.89,13.45
27.659131,844.80,786.13,18.87
27.674758,842.99,796.00,17.52
27.690384,843.02,795.47,14.70
27.706011,844.73,791.96,11.96
27.721638,852.10,794.74,14.74
27.737264,861.50,800.74,14.96
27.752891,859.41,805.30,19.73
27.768518,868.60,819.07,16.33
27.784144,869.96,821.68,15.36
27.799771,885.65,832.85,17.08
27.815397,890.32,846.11,17.91
27.831024,902.22,845.89,15.54
27.846651,908.71,864.55,17.42
27.862277,919.78,868.57,13.18
27.877904,923.47,888.69,14.40
27.893531,933.37,896.60,11.46
27.909157,943.95,894.72,16.60
27.924784,946.12,905.32,16.92
27.940410,949.18,913.70,10.85
27.956037,947.81,916.51,16.63
27.971664,958.28,919.05,16.90
27.987290,956.41,922.82,13.23
28.002917,956.70,922.46,14.91
28.018544,957.28,913.97,13.92
28.034170,951.76,912.64,16.39
28.049797,949.33,905.87,13.67
28.065423,948.60,909.30,11.84
28.081050,939.02,904.67,15.34
28.096677,931.66,898.41,14.45
28.112303,935.13,889.82,16.80
28.127930,919.87,883.37,14.35
28.143557,917.14,871.51,15.51
28.159183,912.77,870.78,17.87
28.174810,907.11,867.20,14.90
28.190437,908.45,859.05,14.75
28.206063,903.77,854.52,16.00
28.221690,896.98,843.33,13.95
28.237316,893.06,843.91,14.28
28.252943,888.28,838.72,16.22
28.268570,892.34,843.03,14.94
28.284196,886.66,837.40,12.12
28.299823,880.35,833.92,14.46
28.315450,884.55,828.18,13.04
28.331076,878.81,830.11,16.28
28.346703,877.86,825.14,15.22
28.362329,876.71,819.79,11.62
28.377956,869.97,821.19,16.26
28.393583,868.94,819.74,15.86
28.409209,860.79,812.41,14.30
28.424836,862.54,812.66,15.03
28.440463,860.38,806.03,14.54
28.456089,858.54,803.39,13.70
28.471716,855.24,805.01,15.13
28.487342,848.22,798.65,12.01
28.502969,846.25,793.28,13.89
28.518596,848.72,787.67,13.73
28.534222,844.89,791.43,16.30
28.549849,844.54,784.56,13.85
28.565476,843.17,790.38,16.36
28.581102,843.79,788.65,15.66
28.596729,853.61,794.49,17.75
28.612355,848.76,807.25,16.79
28.627982,858.48,806.95,18.47
28.643609,862.52,812.11,13.10
28.659235,869.60,822.45,13.75
28.674862,879.06,833.93,14.66
28.690489,889.85,835.93,15.93
28.706115,895.01,845.62,16.70
28.721742,904.93,861.45,17.29
28.737368,918.07,869.18,14.96
28.752995,922.77,881.64,13.72
28.768622,929.43,884.50,15.08
28.784248,934.75,897.16,15.07
28.799875,949.03,907.23,16.55
28.815502,948.77,910.36,14.94
28.831128,952.78,914.57,13.75
28.846755,952.87,921.48,12.48
28.862381,957.21,924.96,14.97
28.878008,963.61,924.66,14.11
28.893635,963.51,926.35,17.11
28.909261,959.82,924.55,15.10
28.924888,948.56,916.45,16.87
28.940515,945.26,909.09,16.58
28.956141,946.28,904.66,16.54
28.971768,940.44,898.12,13.55
28.987395,930.44,891.72,14.25
29.003021,926.66,886.61,16.80
29.018648,926.46,881.23,13.78
29.034274,917.69,863.04,12.73
29.049901,916.13,866.57,13.68
29.065528,907.09,862.89,15.72
29.081154,901.83,856.38,14.52
29.096781,903.24,845.31,17.22
29.112408,896.20,846.88,18.67
29.128034,890.94,845.80,13.62
29.143661,890.65,842.16,16.74
29.159287,883.62,837.81,15.74
29.174914,881.24,830.65,17.48
29.190541,881.09,830.53,14.37
29.206167,881.33,831.13,15.16
29.221794,882.56,833.31,12.88
29.237421,882.12,828.36,15.88
29.253047,876.98,820.82,15.24
29.268674,871.13,820.67,15.74
29.284300,865.77,818.24,14.62
29.299927,866.25,812.60,12.83
29.315554,862.56,809.75,15.45
29.331180,864.74,806.13,16.60
29.346807,856.10,803.72,14.21
29.362434,851.90,796.22,13.52
29.378060,851.68,795.11,15.36
29.393687,851.10,793.70,14.65
29.409313,844.04,790.30,15.19
29.424940,848.31,791.98,15.25
29.440567,852.11,791.06,13.46
29.456193,848.71,795.75,16.23
29.471820,853.74,798.49,16.77
29.487447,852.53,800.55,17.96
29.503073,859.76,807.24,16.26
29.518700,862.08,812.76,10.04
29.534326,870.75,824.95,17.81
29.549953,879.71,828.05,15.05
29.565580,888.31,844.71,15.27
29.581206,905.46,851.63,15.74
29.596833,906.26,856.94,16.29
29.612460,915.46,876.63,10.69
29.628086,926.68,882.77,16.08
29.643713,929.67,887.17,12.74
29.659340,933.85,900.97,15.30
29.674966,940.98,907.15,16.92
29.690593,954.97,912.68,16.52
29.706219,957.95,921.77,16.39
29.721846,955.57,928.71,11.53
29.737473,967.40,929.02,15.82
29.753099,964.78,929.08,10.77
29.768726,958.79,922.39,14.88
29.784353,955.33,922.53,14.83
29.799979,958.18,923.33,16.68
29.815606,951.27,913.79,13.96
29.831232,951.67,905.57,16.71
29.846859,938.30,898.15,16.91
29.862486,935.82,892.35,17.87
29.878112,928.30,888.93,9.80
29.893739,918.24,878.47,13.25
29.909366,919.61,875.93,14.08
29.924992,917.34,870.26,14.78
29.940619,909.01,864.95,17.18
29.956245,905.04,859.51,14.92
29.971872,903.80,851.53,14.76
29.987499,896.12,844.58,13.32
30.003125,897.76,845.79,17.44
30.018752,891.46,842.79,12.37
30.034379,894.79,836.28,17.13
30.050005,884.73,843.00,17.06
30.065632,890.49,834.81,13.63
30.081258,886.40,829.76,12.20
30.096885,884.44,830.71,18.43
30.112512,881.88,827.23,13.05
30.128138,869.96,824.36,16.54
30.143765,873.82,820.39,16.46
30.159392,867.58,823.60,15.25
30.175018,870.57,813.59,15.67
30.190645,863.97,805.35,11.66
30.206271,861.18,814.44,15.72
30.221898,857.66,803.01,16.18
30.237525,857.06,803.83,15.59
30.253151,855.39,797.78,12.01
30.268778,850.22,792.59,18.07
30.284405,848.30,792.10,15.15
30.300031,849.94,788.14,13.67
30.315658,843.45,793.18,16.89
30.331285,856.95,790.56,14.90
30.346911,852.88,795.07,17.21
30.362538,857.28,804.17,13.29
30.378164,860.64,802.98,12.21
30.393791,864.99,814.46,16.76
30.409418,873.97,815.08,15.58
30.425044,883.63,829.45,16.93
30.440671,888.93,835.61,15.11
30.456298,898.18,852.14,12.43
30.471924,910.41,856.42,14.93
30.487551,920.02,872.39,17.06
30.503177,925.08,883.00,13.58
30.518804,937.72,885.97,16.83
30.534431,944.27,898.11,13.96
30.550057,947.37,907.42,12.42
30.565684,948.19,912.56,14.56
30.581311,960.48,919.75,15.42
30.596937,960.67,919.13,14.54
30.612564,963.86,933.78,14.34
30.628190,965.73,925.44,19.57
30.643817,965.91,923.20,16.16
30.659444,962.27,926.20,16.14
30.675070,957.47,919.49,14.04
30.690697,956.05,915.92,13.33
30.706324,955.45,912.67,14.25
30.721950,946.60,908.37,17.93
30.737577,937.25,896.46,16.23
30.753203,931.81,887.77,15.93
30.768830,930.88,885.69,13.58
30.784457,924.17,880.63,12.68
30.800083,918.29,876.26,13.89
30.815710,909.14,864.78,15.14
30.831337,911.09,859.87,14.13
30.846963,905.92,852.60,17.61
30.862590,899.77,856.04,9.43
30.878216,895.63,848.19,11.04
30.893843,892.55,845.06,16.13
30.909470,891.52,836.88,17.60
30.925096,886.45,841.99,15.30
30.940723,887.29,836.26,11.78
30.956350,881.26,829.92,11.67
30.971976,886.19,831.75,15.24
30.987603,880.22,832.73,16.21
31.003230,874.73,824.67,13.29
31.018856,877.34,825.23,12.56
31.034483,876.33,823.86,12.55
31.050109,872.83,815.74,16.04
31.065736,869.11,813.63,15.71
31.081363,864.30,809.26,14.25
31.096989,857.69,807.10,15.23
31.112616,856.03,800.13,13.16
31.128243,854.12,799.06,16.39
31.143869,848.55,796.38,17.82
31.159496,854.50,789.41,12.92
31.175122,854.25,788.88,15.98
31.190749,851.55,796.86,11.95
31.206376,844.98,785.63,15.74
31.222002,847.79,798.91,16.01
31.237629,851.94,796.57,16.68
31.253256,860.06,801.91,10.91
31.268882,865.58,811.84,12.89
31.284509,867.22,816.09,11.65
31.300135,881.01,829.03,14.29
31.315762,892.38,836.87,10.39
31.331389,897.73,850.82,16.38
31.347015,905.29,857.60,14.87
31.362642,908.93,866.86,14.37
31.378269,915.75,873.31,13.94
31.393895,930.67,882.12,14.24
31.409522,937.35,893.75,15.26
31.425148,948.13,903.02,17.42
31.440775,948.51,917.21,19.58
31.456402,956.18,917.86,14.58
31.472028,964.69,921.35,16.59
31.487655,964.60,923.99,15.57
31.503282,966.70,929.13,18.15
31.518908,962.83,928.86,11.00
31.534535,956.59,926.75,13.12
31.550161,966.26,924.64,13.20
31.565788,959.81,919.95,12.80
31.581415,957.38,913.53,15.62
31.597041,951.16,909.39,15.53
31.612668,947.36,902.45,13.28
31.628295,940.71,889.77,16.93
31.643921,932.57,883.16,15.35
31.659548,927.94,876.39,15.40
31.675174,921.76,875.46,16.06
31.690801,914.75,869.65,19.50
31.706428,913.49,861.96,10.28
31.722054,907.90,857.66,16.28
31.737681,896.28,853.77,10.75
31.753308,903.43,842.98,12.06
31.768934,894.52,849.05,13.55
31.784561,895.15,842.70,15.71
31.800188,885.92,840.44,16.08
31.815814,892.19,841.62,14.74
31.831441,885.85,839.02,16.98
31.847067,892.40,835.93,13.48
31.862694,886.92,829.70,18.88
31.878321,876.71,829.71,13.97
31.893947,879.60,829.98,15.31
31.909574,881.77,827.63,12.78
31.925201,871.91,817.58,13.14
31.940827,871.00,813.33,18.62
31.956454,874.71,812.54,15.88
31.972080,869.47,814.22,14.03
31.987707,866.51,810.30,11.36
32.003334,862.39,802.30,14.88
32.018960,856.54,797.78,17.96
32.034587,849.54,794.94,13.15
32.050214,856.80,798.18,14.77
32.065840,851.67,794.54,15.55
32.081467,853.97,797.09,16.76
32.097093,847.48,795.78,10.79
32.112720,852.58,795.62,15.65
32.128347,858.65,796.09,11.85
32.143973,861.16,806.96,11.88
32.159600,870.99,817.55,13.66
32.175227,873.44,821.07,17.19
32.190853,886.50,831.96,14.66
32.206480,890.05,839.32,18.22
32.222106,898.21,855.28,18.33
32.237733,912.68,860.14,18.11
32.253360,913.31,869.10,15.53
32.268986,930.01,877.85,17.03
32.284613,938.58,893.64,15.31
32.300240,939.58,896.16,13.69
32.315866,949.56,902.65,12.01
32.331493,954.47,909.54,17.06
32.347119,962.69,922.12,13.58
32.362746,967.65,927.03,14.31
32.378373,966.58,924.84,16.11
32.393999,972.46,927.80,10.72
32.409626,966.13,926.83,11.77
32.425253,961.40,924.92,18.47
32.440879,959.52,928.99,18.50
32.456506,959.44,922.55,17.25
32.472133,953.78,913.25,14.59
32.487759,947.12,911.02,14.09
32.503386,939.12,902.07,15.83
32.519012,940.44,897.29,16.58
32.534639,930.47,890.83,13.04
32.550266,931.01,882.59,17.59
32.565892,921.35,876.11,14.70
32.581519,913.58,866.32,15.39
32.597146,907.29,859.18,18.45
32.612772,901.49,863.05,16.49
32.628399,904.70,851.48,16.48
32.644025,899.35,851.86,16.88
32.659652,894.65,844.26,16.69
32.675279,895.48,845.83,15.48
32.690905,891.75,841.29,15.95
32.706532,887.68,840.85,15.89
32.722159,893.17,834.61,15.80
32.737785,893.48,826.49,15.38
32.753412,886.10,831.53,12.77
32.769038,886.40,828.00,16.30
32.784665,880.51,826.83,16.07
32.800292,874.31,826.80,16.81
32.815918,879.51,817.50,15.26
32.831545,867.30,818.84,17.60
32.847172,867.71,815.68,11.56
32.862798,862.28,808.82,14.15
32.878425,859.82,804.06,17.78
32.894051,863.62,800.51,15.84
32.909678,856.35,802.49,16.27
32.925305,848.66,800.19,15.59
32.940931,855.45,789.73,14.82
32.956558,858.47,794.12,18.15
32.972185,851.23,793.61,16.65
32.987811,849.47,797.62,12.11
33.003438,856.29,801.97,16.94
33.019064,869.17,808.09,13.43
33.034691,861.04,814.03,10.39
33.050318,871.60,819.61,12.38
33.065944,882.63,826.76,16.27
33.081571,889.61,834.06,11.54
33.097198,896.99,851.31,14.34
33.112824,908.80,856.08,16.44
33.128451,919.52,868.85,17.51
33.144078,916.56,878.63,14.36
33.159704,935.06,890.27,15.02
33.175331,944.07,891.88,15.49
33.190957,951.10,910.10,12.44
33.206584,955.70,913.63,15.37
33.222211,965.15,919.96,14.37
33.237837,959.82,924.96,14.58
33.253464,966.19,930.08,14.40
33.269091,969.81,933.61,14.36
33.284717,968.65,928.71,16.05
33.300344,971.31,924.99,14.13
33.315970,974.19,932.91,14.39
33.331597,959.06,925.39,16.77
33.347224,961.04,915.06,14.89
33.362850,956.08,910.62,15.48
33.378477,953.14,905.43,13.05
33.394104,936.46,896.86,9.58
33.409730,939.76,891.81,12.63
33.425357,937.00,889.24,16.07
33.440983,926.64,880.67,14.09
33.456610,920.87,872.62,15.09
33.472237,917.27,864.80,15.91
33.487863,911.27,863.59,14.32
33.503490,914.24,856.37,12.97
33.519117,901.71,850.69,14.39
33.534743,906.10,849.16,15.19
33.550370,898.43,850.13,15.41
33.565996,890.62,845.96,16.37
33.581623,894.01,843.51,16.23
33.597250,887.23,839.21,14.36
33.612876,886.96,836.27,14.12
33.628503,886.90,827.93,19.04
33.644130,882.87,828.89,16.16
33.659756,888.87,828.86,13.98
33.675383,876.18,829.45,15.27
33.691009,874.78,826.43,15.51
33.706636,874.59,817.88,18.36
33.722263,870.28,811.31,15.30
33.737889,869.03,810.86,16.46
33.753516,862.16,805.90,11.47
33.769143,858.46,803.99,13.74
33.784769,856.51,797.50,14.79
33.800396,856.58,791.70,10.92
33.816023,853.98,791.86,11.90
33.831649,850.88,791.48,16.28
33.847276,854.15,795.74,13.55
33.862902,852.90,800.87,12.17
33.878529,865.32,796.91,18.21
33.894156,857.60,805.05,18.45
33.909782,861.93,809.80,9.83
33.925409,874.62,810.82,13.40
33.941036,879.97,817.54,14.35
33.956662,882.95,835.85,16.55
33.972289,896.46,839.44,15.32
33.987915,902.71,856.07,14.22
34.003542,912.66,864.52,12.54
34.019169,927.92,873.24,17.15
34.034795,933.08,884.69,16.02
34.050422,937.65,895.55,13.36
34.066049,945.05,907.32,13.38
34.081675,955.94,908.95,11.30
34.097302,957.91,909.45,13.43
34.112928,963.27,925.10,10.41
34.128555,970.54,924.06,16.00
34.144182,973.23,925.90,16.60
34.159808,974.07,927.07,16.01
34.175435,970.12,930.58,13.21
34.191062,964.09,927.17,15.80
34.206688,972.41,923.64,14.24
34.222315,961.49,918.35,16.23
34.237941,958.12,915.21,14.15
34.253568,951.65,909.36,16.63
34.269195,948.80,907.26,15.41
34.284821,940.82,896.64,15.21
34.300448,935.31,889.68,16.24
34.316075,926.58,883.47,13.65
34.331701,923.48,878.31,13.60
34.347328,922.82,871.79,12.83
34.362954,923.75,867.45,14.57
34.378581,910.66,859.63,17.81
34.394208,907.86,861.44,16.96
34.409834,901.29,850.62,14.14
34.425461,905.18,847.36,14.27
34.441088,900.43,846.76,13.55
34.456714,901.53,846.30,17.01
34.472341,896.10,840.25,14.87
34.487967,891.44,841.39,13.01
34.503594,886.64,837.82,13.49
34.519221,885.92,840.03,14.40
34.534847,885.17,829.50,15.17
34.550474,881.74,829.62,14.19
34.566101,877.70,821.90,15.12
34.581727,879.29,816.87,12.15
34.597354,870.07,818.45,11.58
34.612981,872.72,808.38,13.27
34.628607,867.93,806.06,18.14
34.644234,868.01,807.41,14.24
34.659860,861.19,808.51,14.65
34.675487,858.43,802.87,14.51
34.691114,851.80,796.15,15.07
34.706740,846.71,795.41,12.40
34.722367,850.98,795.28,11.10
34.737994,853.93,799.84,12.48
34.753620,860.20,793.44,15.10
34.769247,853.81,799.00,15.87
34.784873,866.18,810.15,17.37
34.800500,867.55,811.62,15.63
34.816127,874.01,819.56,13.47
34.831753,878.88,827.51,16.56
34.847380,889.83,837.59,16.54
34.863007,897.24,848.91,12.16
34.878633,905.24,858.40,15.20
34.894260,915.51,870.59,14.93
34.909886,928.05,880.22,16.27
34.925513,934.68,886.22,17.56
34.941140,943.31,895.07,15.94
34.956766,945.56,903.67,18.09
34.972393,954.42,915.37,14.83
34.988020,968.23,916.72,13.60
35.003646,968.43,928.07,15.50
35.019273,972.08,931.17,12.94
35.034899,973.05,929.94,12.64
35.050526,973.33,926.49,13.63
35.066153,974.21,931.30,16.34
35.081779,970.84,928.87,17.23
35.097406,968.87,919.95,12.93
35.113033,967.92,921.70,14.10
35.128659,960.31,914.36,15.42
35.144286,955.39,905.00,12.65
35.159912,948.65,902.96,16.86
35.175539,943.73,892.61,16.95
35.191166,935.82,884.84,13.78
35.206792,934.32,891.23,9.49
35.222419,927.50,877.97,11.83
35.238046,924.02,865.94,15.52
35.253672,913.41,865.26,11.71
35.269299,910.90,860.62,18.51
35.284926,908.17,854.09,20.50
35.300552,900.92,849.12,13.87
35.316179,902.66,847.62,13.99
35.331805,899.93,843.79,12.98
35.347432,894.81,851.39,14.26
35.363059,896.14,844.06,12.79
35.378685,894.46,836.04,15.14
35.394312,889.78,834.56,13.64
35.409939,890.78,827.45,13.75
35.425565,891.70,831.42,13.58
35.441192,883.58,830.69,18.57
35.456818,874.76,822.18,14.38
35.472445,871.75,815.29,15.82
35.488072,871.44,816.99,12.82
35.503698,869.49,817.67,17.32
35.519325,860.90,806.99,12.26
35.534952,864.34,806.04,13.09
35.550578,860.27,800.02,13.28
35.566205,861.20,801.03,11.12
35.581831,860.33,796.07,14.00
35.597458,851.17,799.65,11.96
35.613085,856.34,795.70,15.43
35.628711,855.51,796.37,13.21
35.644338,855.42,798.81,20.09
35.659965,863.16,803.01,16.53
35.675591,862.06,808.62,10.67
35.691218,873.23,815.41,14.74
35.706844,879.67,820.39,14.74
35.722471,883.51,833.45,17.00
35.738098,891.20,836.56,17.49
35.753724,895.92,849.15,14.15
35.769351,911.97,856.34,15.81
35.784978,922.80,870.16,15.35
35.800604,924.37,883.68,15.39
35.816231,940.98,890.12,12.94
35.831857,947.99,898.69,13.79
35.847484,956.95,908.03,18.40
35.863111,967.67,921.10,16.91
35.878737,969.68,928.70,12.62
35.894364,974.12,932.37,15.64
35.909991,974.36,928.57,12.70
35.925617,977.26,933.41,12.63
35.941244,975.74,931.30,13.17
35.956871,975.36,931.94,14.81
35.972497,975.16,930.11,15.81
35.988124,968.88,921.17,13.59
36.003750,965.14,915.42,17.21
36.019377,957.20,914.49,16.61
36.035004,952.84,904.20,14.72
36.050630,949.49,899.95,12.90
36.066257,943.17,893.56,10.83
36.081884,932.14,889.95,14.46
36.097510,926.67,875.32,16.88
36.113137,917.33,868.31,16.14
36.128763,921.15,865.20,17.43
36.144390,914.89,860.93,14.49
36.160017,913.13,860.89,14.49
36.175643,906.28,851.95,17.26
36.191270,903.73,847.76,19.42
36.206897,898.55,847.47,15.67
36.222523,902.64,842.45,11.74
36.238150,895.78,841.24,13.54
36.253776,892.15,843.33,16.71
36.269403,889.13,837.96,14.85
36.285030,891.44,837.71,10.67
36.300656,890.32,832.85,17.39
36.316283,883.77,826.84,13.95
36.331910,881.99,832.87,17.37
36.347536,877.53,816.65,11.50
36.363163,872.41,814.03,12.23
36.378789,871.99,823.11,17.74
36.394416,873.56,809.40,15.21
36.410043,861.18,810.28,11.46
36.425669,865.11,804.08,16.16
36.441296,862.04,800.84,17.77
36.456923,852.52,798.33,19.90
36.472549,856.13,797.63,17.22
36.488176,847.48,796.89,15.42
36.503802,850.46,799.12,15.72
36.519429,858.56,802.64,16.40
36.535056,857.96,801.55,15.36
36.550682,864.46,807.50,15.71
36.566309,871.17,805.91,14.40
36.581936,878.67,813.44,14.92
36.597562,884.08,820.57,13.70
36.613189,892.71,839.26,16.18
36.628816,898.70,842.40,17.39
36.644442,909.04,850.47,17.69
36.660069,916.49,864.70,15.90
36.675695,929.33,874.49,15.96
36.691322,939.94,887.23,15.72
36.706949,947.58,899.56,16.81
36.722575,955.67,902.38,15.05
36.738202,960.59,912.11,14.54
36.753829,966.46,917.87,13.68
36.769455,972.64,925.22,16.07
36.785082,973.73,931.16,14.30
36.800708,980.52,937.91,12.80
36.816335,982.03,938.87,17.22
36.831962,981.10,930.50,13.89
36.847588,974.40,925.83,12.64
36.863215,965.07,921.92,14.82
36.878842,969.42,918.60,12.04
36.894468,963.15,921.66,16.67
36.910095,963.16,905.19,18.76
36.925721,954.30,905.31,18.11
36.941348,948.38,897.51,13.15
36.956975,936.32,897.58,15.73
36.972601,936.43,882.84,18.81
36.988228,928.59,876.31,12.74
37.003855,925.05,872.02,18.66
37.019481,920.41,869.45,18.10
37.035108,911.55,859.81,12.86
37.050734,907.59,855.36,16.57
37.066361,905.56,847.18,14.29
37.081988,906.64,846.67,13.36
37.097614,899.16,847.66,19.40
37.113241,896.32,841.16,15.00
37.128868,894.76,835.39,15.84
37.144494,890.80,838.29,15.86
37.160121,891.64,837.96,15.25
37.175747,888.34,839.50,9.18
37.191374,888.41,834.07,14.94
37.207001,888.86,826.46,16.38
37.222627,881.70,826.87,14.69
37.238254,875.83,823.73,13.60
37.253881,874.60,814.99,15.29
37.269507,874.80,814.72,16.72
37.285134,871.02,808.30,16.19
37.300760,859.97,808.86,16.28
37.316387,861.15,801.82,14.67
37.332014,853.16,803.65,16.70
37.347640,858.07,802.09,14.71
37.363267,854.06,793.48,10.86
37.378894,853.11,799.89,16.34
37.394520,856.98,797.26,14.07
37.410147,860.00,804.28,13.55
37.425774,857.76,803.82,16.10
37.441400,867.72,805.23,12.35
37.457027,870.73,808.58,12.16
37.472653,870.22,815.71,17.66
37.488280,879.62,829.78,14.23
37.503907,887.64,834.74,14.80
37.519533,896.18,845.23,14.26
37.535160,908.20,852.85,17.62
37.550787,921.11,865.51,18.43
37.566413,933.77,878.49,12.25
37.582040,934.12,884.99,15.98
37.597666,947.33,894.39,13.10
37.613293,954.45,904.30,11.01
37.628920,962.21,918.95,14.19
37.644546,967.12,923.42,19.12
37.660173,977.86,923.67,9.40
37.675800,977.87,926.75,15.27
37.691426,984.42,925.47,11.09
37.707053,979.75,930.47,14.39
37.722679,976.41,927.47,13.42
37.738306,965.74,924.01,14.14
37.753933,974.87,928.45,11.15
37.769559,965.59,923.69,11.77
37.785186,968.38,913.77,13.84
37.800813,956.15,902.03,15.89
37.816439,952.02,897.88,18.23
37.832066,942.88,894.64,14.13
37.847692,942.54,890.08,15.39
37.863319,936.01,885.47,15.87
37.878946,922.40,876.15,15.14
37.894572,924.84,872.05,14.78
37.910199,911.69,871.30,18.07
37.925826,908.92,859.88,16.25
37.941452,904.08,848.99,17.29
37.957079,909.23,849.27,16.27
37.972705,902.39,849.64,17.11
37.988332,901.15,845.03,18.36
38.003959,892.77,844.08,16.41
38.019585,894.90,841.89,16.09
38.035212,892.93,837.51,17.26
38.050839,887.42,834.81,17.54
38.066465,885.93,832.81,14.28
38.082092,886.63,828.59,17.23
38.097719,880.13,832.44,12.92
38.113345,876.33,822.30,13.36
38.128972,873.12,819.73,14.47
38.144598,874.96,821.60,15.67
38.160225,869.03,811.37,16.31
38.175852,860.29,814.07,14.91
38.191478,860.79,806.32,13.62
38.207105,862.67,801.61,16.84
38.222732,852.58,799.75,15.17
38.238358,856.66,794.21,14.23
38.253985,850.42,792.65,15.07
38.269611,848.77,794.68,16.62
38.285238,853.45,792.43,15.38
38.300865,850.02,792.18,14.75
38.316491,863.62,802.75,13.61
38.332118,866.05,802.11,15.40
38.347745,869.06,820.56,16.83
38.363371,879.36,816.73,9.92
38.378998,885.31,827.20,16.06
38.394624,892.29,841.90,14.76
38.410251,897.52,850.81,13.98
38.425878,912.47,858.13,15.35
38.441504,919.48,869.80,17.58
38.457131,931.44,878.55,12.86
38.472758,938.62,890.26,16.36
38.488384,948.84,900.35,13.61
38.504011,955.48,906.26,15.09
38.519637,958.25,916.60,16.72
38.535264,971.29,926.31,13.04
38.550891,976.08,918.83,14.12
38.566517,973.10,928.36,16.21
38.582144,982.26,932.28,14.69
38.597771,979.52,928.22,16.52
38.613397,976.46,929.63,11.76
38.629024,967.47,928.48,15.12
38.644650,966.16,927.80,15.43
38.660277,967.41,917.02,15.78
38.675904,958.06,916.58,11.92
38.691530,954.72,904.40,15.03
38.707157,945.85,895.42,15.78
38.722784,951.41,891.80,16.40
38.738410,939.21,881.50,15.26
38.754037,936.99,879.99,13.78
38.769664,923.40,871.72,15.22
38.785290,922.74,865.06,19.39
38.800917,920.04,862.89,16.02
38.816543,913.61,858.03,16.49
38.832170,904.02,850.22,14.53
38.847797,905.15,852.55,14.10
38.863423,906.01,850.06,19.73
38.879050,904.30,845.27,12.71
38.894677,896.39,841.58,14.36
38.910303,892.72,838.61,10.71
38.925930,895.39,835.37,12.85
38.941556,886.13,835.34,16.06
38.957183,883.60,833.94,15.90
38.972810,888.01,831.96,14.66
38.988436,880.88,829.37,15.64
39.004063,880.49,824.12,17.71
39.019690,877.56,821.64,14.93
39.035316,870.20,813.15,15.58
39.050943,869.25,812.75,15.24
39.066569,863.24,807.62,15.25
39.082196,860.42,795.84,15.88
39.097823,856.44,799.14,17.01
39.113449,857.02,801.63,15.06
39.129076,859.14,792.05,13.29
39.144703,855.27,793.14,13.97
39.160329,851.81,796.10,13.60
39.175956,851.46,798.79,16.96
39.191582,854.56,798.38,11.85
39.207209,856.73,801.28,15.04
39.222836,871.04,811.30,17.45
39.238462,872.63,808.27,17.13
39.254089,874.25,825.71,15.59
39.269716,884.54,826.47,15.84
39.285342,898.37,844.27,14.38
39.300969,908.31,846.75,17.48
39.316595,912.84,860.54,15.57
39.332222,921.41,866.40,12.24
39.347849,929.71,877.21,11.93
39.363475,937.93,893.62,15.24
39.379102,949.72,898.33,17.57
39.394729,959.50,908.26,13.50
39.410355,965.78,913.50,13.79
39.425982,965.71,918.80,14.07
39.441609,970.86,923.61,18.55
39.457235,978.21,926.21,11.30
39.472862,980.13,931.41,13.04
39.488488,975.42,933.20,17.98
39.504115,972.79,930.49,14.98
39.519742,973.62,924.78,14.16
39.535368,969.52,924.13,15.16
39.550995,965.09,918.46,13.85
39.566622,962.36,908.16,12.49
39.582248,957.04,907.08,15.09
39.597875,946.07,899.41,17.31
39.613501,943.38,891.14,12.80
39.629128,932.74,882.26,12.30
39.644755,934.27,874.50,8.47
39.660381,923.99,872.71,18.74
39.676008,914.47,865.44,18.65
39.691635,915.33,857.49,14.52
39.707261,906.35,861.76,11.51
39.722888,898.24,853.93,13.89
39.738514,904.17,846.89,15.15
39.754141,898.65,847.80,15.29
39.769768,894.47,844.78,13.25
39.785394,891.80,843.07,13.36
39.801021,896.67,834.76,12.42
39.816648,893.55,834.64,15.30
39.832274,889.86,829.77,13.51
39.847901,883.44,825.75,16.34
39.863527,879.27,829.47,14.91
39.879154,882.04,825.00,15.88
39.894781,877.89,820.19,17.47
39.910407,874.44,817.53,19.61
39.926034,869.68,813.06,18.77
39.941661,860.58,807.39,16.75
39.957287,863.51,804.58,10.33
39.972914,860.34,802.58,14.60
39.988540,856.30,801.89,17.87
40.004167,855.08,793.35,14.44
40.019794,848.00,795.55,19.19
40.035420,849.25,800.21,16.22
40.051047,854.89,796.38,14.03
40.066674,861.73,795.90,15.03
40.082300,857.54,797.27,13.98
40.097927,855.48,805.10,15.94
40.113553,872.71,810.14,16.20
40.129180,875.14,814.52,12.93
40.144807,871.15,818.35,13.49
40.160433,889.54,829.11,14.24
40.176060,892.52,839.00,13.37
40.191687,906.71,847.18,19.59
40.207313,906.67,864.49,11.21
40.222940,921.95,867.07,15.44
40.238567,937.39,878.90,18.41
40.254193,941.49,891.91,12.53
40.269820,948.85,900.44,14.01
40.285446,958.17,905.25,16.35
40.301073,961.28,914.83,13.38
40.316700,970.13,925.55,13.93
40.332326,975.59,929.55,14.27
40.347953,977.20,927.74,10.36
40.363580,976.22,927.49,13.22
40.379206,981.36,926.26,17.31
40.394833,986.29,924.23,12.15
40.410459,973.82,921.19,14.45
40.426086,962.73,921.46,17.34
40.441713,965.41,918.47,13.05
40.457339,954.79,901.39,14.28
40.472966,947.87,908.50,16.50
40.488593,947.40,895.88,15.04
40.504219,932.20,888.78,15.28
40.519846,932.74,882.01,16.05
40.535472,928.08,878.64,15.99
40.551099,926.12,865.18,15.16
40.566726,919.46,858.81,14.16
40.582352,909.57,857.83,14.46
40.597979,908.26,849.94,14.28
40.613606,900.00,854.39,16.74
40.629232,901.11,845.98,16.21
40.644859,893.53,845.58,13.68
40.660485,895.82,845.08,16.53
40.676112,891.63,843.69,18.66
40.691739,888.35,832.98,12.20
40.707365,891.87,833.95,16.84
40.722992,887.91,832.60,17.92
40.738619,878.93,827.11,17.26
40.754245,884.50,829.33,18.79
40.769872,874.04,825.41,16.75
40.785498,874.69,822.32,11.17
40.801125,874.58,816.97,12.55
40.816752,865.54,808.23,18.44
40.832378,860.71,807.94,12.42
40.848005,862.20,803.53,14.67
40.863632,857.75,799.44,14.72
40.879258,853.35,797.28,17.73
40.894885,851.78,795.57,16.54
40.910512,847.80,791.60,13.03
40.926138,850.65,798.62,12.41
40.941765,849.41,786.50,13.62
40.957391,853.47,796.46,17.45
40.973018,860.82,799.87,16.01
40.988645,859.25,801.89,14.49
41.004271,865.07,805.61,16.38
41.019898,873.96,818.41,16.00
41.035525,876.07,823.17,19.34
41.051151,889.86,832.49,17.01
41.066778,896.81,839.91,14.59
41.082404,911.43,851.76,14.37
41.098031,911.82,863.86,17.77
41.113658,925.08,874.13,15.91
41.129284,937.30,882.50,13.74
41.144911,941.87,887.67,17.91
41.160538,958.03,899.71,14.09
41.176164,958.71,909.62,15.26
41.191791,969.07,914.20,13.92
41.207417,975.20,924.16,14.42
41.223044,974.28,922.63,10.36
41.238671,977.04,924.92,12.90
41.254297,975.29,927.55,15.86
41.269924,974.67,927.88,14.37
41.285551,972.51,928.99,18.09
41.301177,970.54,919.34,11.57
41.316804,969.22,918.03,12.59
41.332430,960.99,915.45,11.27
41.348057,956.45,901.78,11.39
41.363684,947.58,899.81,18.88
41.379310,950.85,891.13,14.71
41.394937,940.92,883.55,18.05
41.410564,927.02,883.85,14.98
41.426190,922.51,874.76,11.15
41.441817,921.17,867.87,17.79
41.457443,907.23,859.86,17.46
41.473070,908.28,858.37,16.74
41.488697,910.08,857.13,15.34
41.504323,899.04,847.01,14.59
41.519950,901.43,839.60,16.95
41.535577,897.44,836.28,14.08
41.551203,889.63,838.88,15.63
41.566830,889.68,835.39,11.19
41.582457,888.74,831.67,14.02
41.598083,883.08,832.65,16.31
41.613710,879.73,831.26,14.82
41.629336,883.98,826.33,16.64
41.644963,881.76,818.51,13.80
41.660590,875.42,813.43,13.55
41.676216,868.69,817.92,16.99
41.691843,872.79,813.88,17.14
41.707470,867.38,809.37,16.83
41.723096,859.85,804.62,15.20
41.738723,859.53,796.89,14.13
41.754349,856.85,799.16,15.06
41.769976,853.08,795.14,14.10
41.785603,853.39,795.65,16.74
41.801229,842.08,789.03,11.87
41.816856,853.50,792.72,17.97
41.832483,851.47,790.41,15.51
41.848109,851.93,793.35,17.04
41.863736,858.21,795.41,13.42
41.879362,860.74,802.54,13.94
41.894989,859.15,805.14,13.10
41.910616,871.51,814.11,17.29
41.926242,879.81,826.17,12.86
41.941869,886.08,833.42,14.82
41.957496,890.62,842.41,13.19
41.973122,902.61,852.92,12.17
41.988749,909.79,866.71,16.76
42.004375,923.51,872.66,15.64
42.020002,940.50,885.37,13.72
42.035629,947.19,894.00,17.72
42.051255,950.21,901.42,13.73
42.066882,956.53,912.81,15.82
42.082509,966.10,915.48,16.76
42.098135,970.40,913.35,14.70
42.113762,972.80,920.01,18.29
42.129388,974.38,925.61,11.63
42.145015,981.94,928.19,13.33
42.160642,980.51,917.18,14.02
42.176268,969.95,920.93,13.54
42.191895,970.63,918.20,16.77
42.207522,962.65,918.47,19.45
42.223148,958.28,910.02,16.87
42.238775,954.56,904.98,16.07
42.254402,945.25,895.97,12.26
42.270028,937.82,885.23,14.19
42.285655,934.11,885.47,13.98
42.301281,927.06,876.35,18.36
42.316908,926.79,871.87,15.50
42.332535,915.29,861.86,14.74
42.348161,911.03,858.25,11.19
42.363788,906.46,852.00,13.04
42.379415,900.73,845.79,14.84
42.395041,902.23,842.16,20.50
42.410668,898.47,842.90,13.33
42.426294,894.03,838.69,12.28
42.441921,895.11,837.31,13.87
42.457548,888.92,833.85,18.53
42.473174,890.64,831.47,13.81
42.488801,881.13,825.19,19.63
42.504428,879.85,832.44,14.44
42.520054,876.71,823.21,17.43
42.535681,873.41,822.79,11.95
42.551307,872.41,815.36,14.99
42.566934,863.91,808.45,16.28
42.582561,858.81,811.80,14.05
42.598187,869.87,805.30,18.53
42.613814,859.80,805.61,17.50
42.629441,853.85,802.99,16.96
42.645067,853.67,799.85,18.50
42.660694,850.94,791.02,14.54
42.676320,846.18,789.69,14.67
42.691947,841.13,788.65,12.66
42.707574,843.90,792.20,14.77
42.723200,846.68,790.86,16.02
42.738827,848.51,796.28,17.19
42.754454,846.90,798.43,14.74
42.770080,856.16,797.64,15.80
42.785707,868.00,805.64,16.52
42.801333,866.80,808.16,14.27
42.816960,876.45,823.47,16.01
42.832587,885.82,828.79,14.80
42.848213,892.60,839.27,12.75
42.863840,911.44,856.87,18.08
42.879467,915.78,861.40,17.44
42.895093,921.36,867.82,14.18
42.910720,938.24,881.77,16.99
42.926346,947.13,892.27,15.36
42.941973,950.96,899.03,13.87
42.957600,962.62,909.34,14.86
42.973226,960.34,912.39,11.84
42.988853,961.26,915.50,15.91
43.004480,976.09,916.86,15.70
43.020106,970.57,922.14,14.12
43.035733,973.60,922.95,15.17
43.051360,974.40,923.19,14.65
43.066986,973.21,921.62,12.14
43.082613,969.84,920.78,11.44
43.098239,959.03,912.56,18.25
43.113866,962.70,908.35,15.22
43.129493,955.55,898.65,13.82
43.145119,944.04,886.01,14.46
43.160746,939.38,889.73,13.21
43.176373,933.52,876.38,13.50
43.191999,926.53,874.51,16.97
43.207626,921.27,866.16,16.30
43.223252,916.21,856.53,13.70
43.238879,910.89,857.17,12.15
43.254506,903.42,855.17,15.42
43.270132,898.54,847.00,14.91
43.285759,895.01,844.97,11.87
43.301386,895.10,838.27,12.58
43.317012,890.79,830.80,15.30
43.332639,889.60,835.01,15.66
43.348265,888.58,832.63,16.72
43.363892,886.90,829.77,15.45
43.379519,880.56,828.20,13.61
43.395145,882.65,823.54,14.23
43.410772,878.34,823.37,17.77
43.426399,871.44,818.05,13.58
43.442025,877.22,813.01,11.02
43.457652,866.46,818.42,16.66
43.473278,869.21,812.69,15.83
43.488905,860.67,805.21,13.09
43.504532,858.88,799.98,15.57
43.520158,853.12,797.50,15.76
43.535785,847.02,791.17,14.28
43.551412,845.77,792.39,14.29
43.567038,851.13,790.15,14.07
43.582665,847.93,790.22,12.57
43.598291,847.29,785.54,15.89
43.613918,845.08,788.35,14.36
43.629545,842.04,789.48,14.88
43.645171,852.34,795.73,12.46
43.660798,856.35,798.65,13.27
43.676425,861.30,804.63,15.35
43.692051,872.47,812.86,12.56
43.707678,876.69,817.25,13.65
43.723305,893.58,830.14,12.85
43.738931,896.90,839.25,16.58
43.754558,900.27,848.47,19.32
43.770184,914.82,861.90,14.68
43.785811,929.52,869.92,12.48
43.801438,940.63,885.68,14.75
43.817064,941.90,890.31,17.86
43.832691,955.95,902.29,15.42
43.848318,954.49,907.09,17.40
43.863944,964.86,916.26,14.11
43.879571,966.33,914.24,16.38
43.895197,969.55,918.56,17.01
43.910824,979.54,924.74,18.58
43.926451,971.25,925.64,20.79
43.942077,969.29,922.51,14.81
43.957704,970.81,914.01,14.38
43.973331,963.47,913.31,12.61
43.988957,956.35,905.97,14.08
44.004584,958.56,904.52,17.42
44.020210,950.58,897.29,14.53
44.035837,942.80,892.78,14.55
44.051464,938.55,881.11,16.24
44.067090,932.85,878.13,15.96
44.082717,928.70,869.45,19.74
44.098344,917.78,860.09,12.68
44.113970,917.36,852.73,16.78
44.129597,910.06,854.27,15.01
44.145223,898.41,842.19,18.88
44.160850,893.79,846.40,14.67
44.176477,893.95,836.43,17.33
44.192103,894.85,836.21,10.16
44.207730,890.23,827.69,14.82
44.223357,891.01,832.39,16.67
44.238983,882.76,830.86,12.22
44.254610,887.95,828.89,13.55
44.270236,880.83,828.31,13.42
44.285863,868.22,822.12,14.20
44.301490,873.86,821.02,12.55
44.317116,867.04,816.58,13.79
44.332743,868.77,816.29,18.66
44.348370,870.36,815.15,13.74
44.363996,857.51,805.33,15.58
44.379623,854.79,798.91,12.40
44.395250,856.99,801.70,18.46
44.410876,848.66,799.35,14.52
44.426503,842.69,790.76,15.67
44.442129,844.35,787.71,17.33
44.457756,846.20,788.48,15.26
44.473383,844.62,787.67,17.07
44.489009,841.06,783.34,14.89
44.504636,846.24,785.28,16.30
44.520263,842.95,793.41,12.32
44.535889,848.58,799.09,14.20
44.551516,856.51,803.00,16.21
44.567142,861.04,802.20,14.13
44.582769,869.40,814.68,16.05
44.598396,875.68,822.03,14.70
44.614022,886.23,830.79,18.48
44.629649,892.93,846.28,18.09
44.645276,919.15,852.06,14.88
44.660902,916.29,866.24,15.28
44.676529,922.06,870.95,14.58
44.692155,932.51,882.73,16.19
44.707782,946.66,892.99,14.72
44.723409,951.45,904.65,15.51
44.739035,955.21,906.44,14.16
44.754662,970.26,915.16,12.84
44.770289,972.25,916.80,10.76
44.785915,972.43,916.36,13.27
44.801542,971.02,916.50,14.16
44.817168,969.99,921.56,11.33
44.832795,968.61,920.27,13.95
44.848422,964.58,921.17,15.12
44.864048,966.19,908.70,13.67
44.879675,958.46,903.91,14.04
44.895302,949.27,899.10,15.69
44.910928,943.39,893.66,15.19
44.926555,938.24,889.48,13.17
44.942181,928.68,880.81,14.87
44.957808,918.48,869.19,15.13
44.973435,917.76,868.25,15.39
44.989061,909.79,865.78,14.34
45.004688,911.69,852.31,15.15
45.020315,899.78,853.59,16.19
45.035941,900.68,847.65,12.74
45.051568,891.21,842.75,14.40
45.067194,893.97,839.48,18.03
45.082821,893.20,840.17,13.13
45.098448,882.88,835.05,12.34
45.114074,883.63,831.99,16.95
45.129701,882.69,825.84,11.42
45.145328,889.14,821.14,16.64
45.160954,877.39,824.15,14.26
45.176581,876.90,822.75,15.88
45.192208,876.16,817.20,18.48
45.207834,867.47,817.70,15.65
45.223461,867.78,803.84,12.72
45.239087,857.78,811.61,14.96
45.254714,860.52,812.07,18.96
45.270341,853.82,796.17,14.21
45.285967,846.47,800.67,13.49
45.301594,842.29,794.47,13.07
45.317221,849.59,796.56,15.37
45.332847,846.08,790.98,12.05
45.348474,839.45,792.34,15.56
45.364100,839.53,786.36,13.10
45.379727,842.23,786.59,13.12
45.395354,837.05,788.91,15.20
45.410980,843.44,791.80,15.11
45.426607,850.57,792.23,10.31
45.442234,853.62,801.77,12.46
45.457860,853.59,809.73,13.76
45.473487,867.02,807.46,17.42
45.489113,869.31,824.63,17.48
45.504740,883.76,830.25,13.79
45.520367,890.18,847.28,15.14
45.535993,900.95,853.78,11.14
45.551620,910.32,863.11,16.97
45.567247,918.08,870.92,14.07
45.582873,937.78,877.42,17.44
45.598500,947.85,890.73,15.60
45.614126,949.99,900.24,17.20
45.629753,955.94,902.82,13.63
45.645380,965.59,910.16,12.35
45.661006,966.07,918.46,14.92
45.676633,971.18,916.96,12.73
45.692260,969.53,926.34,13.94
45.707886,974.59,919.50,14.17
45.723513,966.74,916.23,17.30
45.739139,963.78,916.42,15.28
45.754766,957.54,911.10,14.01
45.770393,957.10,905.57,15.83
45.786019,946.67,898.88,16.91
45.801646,943.53,893.51,18.04
45.817273,939.09,885.48,12.25
45.832899,935.82,875.11,16.85
45.848526,927.85,875.95,18.13
45.864153,915.40,864.04,13.24
45.879779,913.07,857.21,15.61
45.895406,910.68,846.45,12.27
45.911032,893.96,849.99,16.46
45.926659,897.19,846.88,15.71
45.942286,895.28,841.46,14.26
45.957912,888.02,840.57,13.76
45.973539,887.25,831.82,11.45
45.989166,881.64,831.75,15.79
46.004792,882.71,829.68,20.03
46.020419,878.63,835.27,15.37
46.036045,877.20,822.32,15.43
46.051672,874.55,824.52,14.45
46.067299,865.92,821.78,14.58
46.082925,866.70,820.26,14.99
46.098552,866.19,814.86,16.78
46.114179,858.04,812.48,13.75
46.129805,859.63,811.33,14.52
46.145432,854.59,801.78,18.07
46.161058,858.58,800.21,15.19
46.176685,851.97,794.37,17.23
46.192312,846.56,794.59,16.78
46.207938,846.14,789.26,15.77
46.223565,837.55,785.50,15.49
46.239192,834.99,787.30,17.93
46.254818,836.51,788.22,12.74
46.270445,833.41,785.14,16.20
46.286071,842.21,787.30,9.74
46.301698,837.17,794.89,13.47
46.317325,845.11,795.90,10.16
46.332951,852.08,795.32,17.73
46.348578,860.36,806.70,19.63
46.364205,863.44,813.47,18.07
46.379831,874.60,816.47,14.39
46.395458,880.30,831.37,15.17
46.411084,893.61,840.80,14.89
46.426711,896.95,848.60,18.15
46.442338,912.86,861.46,12.61
46.457964,934.00,870.88,15.94
46.473591,931.57,880.25,16.61
46.489218,941.26,892.34,17.81
46.504844,954.86,902.87,14.96
46.520471,955.58,909.02,15.78
46.536098,966.14,911.11,18.48
46.551724,966.87,915.73,12.15
46.567351,963.07,920.16,17.16
46.582977,974.87,918.70,13.71
46.598604,968.58,918.80,14.91
46.614231,959.11,917.23,15.42
46.629857,967.78,907.07,13.72
46.645484,964.49,914.12,13.75
46.661111,953.45,901.37,16.47
46.676737,951.76,896.70,17.60
46.692364,936.61,887.36,12.76
46.707990,934.86,885.51,17.57
46.723617,928.84,876.49,16.06
46.739244,925.91,871.11,18.66
46.754870,918.25,869.70,13.75
46.770497,905.95,853.27,19.51
46.786124,901.49,851.72,14.21
46.801750,901.78,845.53,15.64
46.817377,895.10,842.80,15.47
46.833003,885.59,844.98,16.50
46.848630,885.43,835.95,15.40
46.864257,884.11,831.78,15.26
46.879883,884.18,830.77,15.99
46.895510,887.34,828.43,17.61
46.911137,875.55,828.90,17.28
46.926763,869.62,824.02,11.97
46.942390,872.21,824.03,19.88
46.958016,862.46,816.90,15.25
46.973643,863.83,816.91,16.63
46.989270,870.62,813.19,16.05
47.004896,857.20,804.92,17.30
47.020523,858.35,802.30,18.70
47.036150,860.49,803.27,13.58
47.051776,851.15,795.49,13.78
47.067403,841.17,789.27,12.97
47.083029,838.52,789.45,16.16
47.098656,840.71,788.78,18.99
47.114283,839.06,782.95,17.58
47.129909,835.42,783.42,13.87
47.145536,831.17,784.76,17.54
47.161163,837.04,788.32,15.34
47.176789,840.13,787.01,14.14
47.192416,843.62,788.04,15.58
47.208043,842.40,791.10,14.67
47.223669,849.88,795.74,16.10
47.239296,849.33,808.58,15.29
47.254922,863.20,816.38,16.10
47.270549,873.81,818.06,14.03
47.286176,880.50,831.87,13.69
47.301802,893.92,843.59,16.69
47.317429,900.68,852.11,11.63
47.333056,913.21,868.27,14.25
47.348682,919.67,871.77,15.68
47.364309,933.69,876.33,11.51
47.379935,944.02,892.71,17.93
47.395562,952.64,893.67,12.66
47.411189,956.23,906.80,16.57
47.426815,958.09,919.59,14.59
47.442442,969.10,913.37,14.08
47.458069,968.64,918.05,15.14
47.473695,968.58,916.73,14.99
47.489322,962.64,920.89,13.17
47.504948,963.60,919.72,16.93
47.520575,959.83,912.19,14.08
47.536202,959.83,906.46,13.17
47.551828,950.66,900.77,16.95
47.567455,944.83,892.00,11.88
47.583082,941.59,891.74,14.69
47.598708,932.88,884.04,17.43
47.614335,924.06,876.13,14.06
47.629961,918.11,869.48,16.41
47.645588,911.46,866.89,14.35
47.661215,909.04,856.12,14.47
47.676841,907.95,849.86,14.44
47.692468,897.35,846.14,13.01
47.708095,889.21,841.39,13.55
47.723721,891.80,839.65,13.15
47.739348,881.95,833.89,18.36
47.754974,878.55,834.79,14.50
47.770601,880.33,825.60,17.66
47.786228,876.79,829.61,14.73
47.801854,876.70,831.33,12.93
47.817481,871.17,821.73,14.60
47.833108,874.15,821.72,12.23
47.848734,862.35,814.36,15.75
47.864361,859.70,810.11,17.21
47.879987,856.79,814.33,16.07
47.895614,855.77,812.38,14.51
47.911241,851.23,805.41,14.15
47.926867,849.13,798.60,13.08
47.942494,846.32,794.64,14.68
47.958121,842.50,796.99,14.69
47.973747,834.46,788.37,11.76
47.989374,834.79,785.57,14.94
48.005001,839.39,781.90,15.32
48.020627,839.77,780.62,17.86
48.036254,830.24,788.20,16.26
48.051880,830.48,778.29,15.72
48.067507,837.75,779.12,12.63
48.083134,830.04,790.40,14.17
48.098760,841.79,794.26,16.79
48.114387,843.06,796.15,16.59
48.130014,855.92,809.62,14.20
48.145640,864.43,812.56,15.52
48.161267,873.49,824.46,14.15
48.176893,883.46,830.63,14.75
48.192520,886.19,842.69,15.13
48.208147,904.46,854.95,15.43
48.223773,910.27,865.27,12.98
48.239400,920.31,873.56,15.39
48.255027,933.39,882.45,15.31
48.270653,939.11,896.06,14.28
48.286280,946.05,897.36,15.83
48.301906,952.70,904.39,15.60
48.317533,962.59,910.99,15.06
48.333160,962.59,913.86,13.92
48.348786,972.11,918.60,16.59
48.364413,966.05,912.72,17.09
48.380040,967.97,912.98,15.07
48.395666,958.35,912.21,12.73
48.411293,959.63,916.09,12.87
48.426919,954.78,903.51,14.99
48.442546,948.86,898.81,12.99
48.458173,943.41,897.67,15.56
48.473799,935.74,889.78,11.78
48.489426,926.28,879.61,14.44
48.505053,925.17,871.06,15.04
48.520679,914.55,865.58,18.87
48.536306,906.39,859.12,16.04
48.551932,901.55,860.73,14.18
48.567559,892.73,843.41,15.88
48.583186,893.58,845.68,16.25
48.598812,895.75,838.64,15.28
48.614439,884.57,838.05,13.09
48.630066,874.74,837.86,13.38
48.645692,876.92,834.13,16.95
48.661319,877.05,824.31,13.88
48.676946,875.92,829.93,12.17
48.692572,870.92,818.31,17.81
48.708199,875.54,820.03,17.59
48.723825,861.35,820.74,15.40
48.739452,863.44,812.69,11.45
48.755079,859.58,813.50,14.41
48.770705,863.18,811.80,14.90
48.786332,856.44,807.67,13.52
48.801959,844.94,803.03,18.10
48.817585,856.00,802.45,13.97
48.833212,846.54,798.62,14.55
48.848838,837.38,790.47,15.48
48.864465,837.84,786.68,16.00
48.880092,834.44,790.31,17.85
48.895718,830.04,785.24,13.79
48.911345,827.10,783.56,14.83
48.926972,833.12,783.27,16.43
48.942598,828.02,779.64,14.88
48.958225,832.73,789.36,15.67
48.973851,832.94,790.11,14.48
48.989478,836.71,794.27,16.13
49.005105,851.40,796.68,14.31
49.020731,852.60,808.14,16.42
49.036358,870.33,815.53,15.86
49.051985,872.91,819.27,17.02
49.067611,885.11,831.54,13.81
49.083238,897.66,843.34,17.70
49.098864,906.58,856.45,12.73
49.114491,908.58,861.15,14.89
49.130118,922.07,872.64,15.79
49.145744,926.87,884.17,15.81
49.161371,937.48,895.24,18.56
49.176998,943.59,900.10,12.56
49.192624,955.95,904.30,15.26
49.208251,957.56,913.97,15.61
49.223877,962.66,918.32,10.92
49.239504,965.45,914.61,14.99
49.255131,970.04,913.69,15.92
49.270757,969.78,912.26,13.06
49.286384,957.22,912.70,14.18
49.302011,960.30,903.62,14.46
49.317637,949.91,902.22,15.43
49.333264,944.95,893.70,16.72
49.348891,941.98,890.00,16.67
49.364517,930.65,888.06,18.76
49.380144,922.04,880.61,15.93
49.395770,929.23,863.25,17.56
49.411397,916.85,865.94,14.06
49.427024,904.30,857.67,17.35
49.442650,899.21,851.60,14.86
49.458277,891.47,846.69,14.81
49.473904,890.80,835.97,19.03
49.489530,887.03,838.71,15.50
49.505157,883.28,837.71,13.56
49.520783,876.34,826.37,12.40
49.536410,882.71,829.44,16.60
49.552037,869.77,831.16,13.02
49.567663,877.38,821.84,11.62
49.583290,871.73,822.34,13.27
49.598917,874.13,819.58,16.64
49.614543,868.94,816.95,13.54
49.630170,857.41,813.27,14.96
49.645796,862.23,806.42,16.50
49.661423,852.61,807.64,13.13
49.677050,853.89,801.68,15.78
49.692676,851.63,804.86,10.57
49.708303,841.00,796.72,13.82
49.723930,841.75,793.46,16.32
49.739556,834.00,793.65,13.35
49.755183,835.61,789.25,15.00
49.770809,826.57,781.74,15.13
49.786436,827.89,783.88,13.35
49.802063,824.55,782.68,17.21
49.817689,828.60,786.91,13.51
49.833316,830.18,783.16,17.24
49.848943,828.27,787.07,14.69
49.864569,838.15,786.30,14.13
49.880196,831.67,799.08,16.20
49.895822,846.75,797.98,14.59
49.911449,854.80,810.81,14.10
49.927076,868.07,816.64,13.71
49.942702,869.96,826.20,14.91
49.958329,879.98,833.82,12.97
49.973956,896.90,850.11,14.12
49.989582,903.76,854.73,16.05
50.005209,919.69,866.96,15.40
50.020836,929.23,873.59,13.36
50.036462,937.60,885.98,15.96
50.052089,941.97,891.31,11.11
50.067715,951.19,896.92,17.23
50.083342,952.86,900.78,16.55
50.098969,957.95,910.18,14.26
50.114595,961.67,915.62,17.16
50.130222,965.10,912.16,12.11
50.145849,961.26,916.17,15.02
50.161475,954.73,913.97,14.55
50.177102,963.76,909.23,15.66
50.192728,957.12,905.55,12.17
50.208355,948.59,904.38,16.09
50.223982,946.70,896.73,17.38
50.239608,946.32,888.78,14.98
50.255235,934.11,881.20,14.62
50.270862,932.73,877.67,12.78
50.286488,919.83,873.37,16.18
50.302115,908.95,863.78,14.37
50.317741,906.69,863.15,10.87
50.333368,903.16,854.18,13.98
50.348995,891.84,845.95,14.42
50.364621,889.85,843.84,14.14
50.380248,881.88,840.11,14.38
50.395875,875.36,829.08,13.00
50.411501,870.06,831.39,14.48
50.427128,870.84,830.09,15.56
50.442754,869.83,828.89,15.13
50.458381,872.34,822.68,16.04
50.474008,864.37,819.27,15.14
50.489634,870.95,821.40,17.57
50.505261,864.56,813.84,14.25
50.520888,857.61,809.16,15.04
50.536514,854.70,810.94,15.06
50.552141,853.51,810.39,16.86
50.567767,849.82,800.68,16.19
50.583394,844.57,797.36,15.56
50.599021,845.89,801.07,15.24
50.614647,836.57,793.93,14.23
50.630274,832.96,787.45,17.90
50.645901,828.03,783.54,18.82
50.661527,833.14,785.26,12.47
50.677154,828.66,781.19,13.72
50.692780,829.75,781.01,17.92
50.708407,829.05,779.53,17.95
50.724034,832.69,783.32,13.34
50.739660,828.77,789.26,16.24
50.755287,830.50,790.41,18.72
50.770914,837.99,793.48,16.24
50.786540,848.61,805.94,17.73
50.802167,852.19,810.57,14.84
50.817794,867.97,818.60,14.31
50.833420,867.33,826.26,15.31
50.849047,887.06,841.41,11.29
50.864673,894.34,851.76,12.95
50.880300,906.71,861.45,13.64
50.895927,924.20,867.09,14.77
50.911553,930.18,882.11,16.51
50.927180,942.54,886.35,16.54
50.942807,940.54,899.24,16.69
50.958433,950.08,900.40,12.70
50.974060,956.10,907.49,17.13
50.989686,966.06,913.32,12.19
51.005313,959.05,915.67,12.40
51.020940,970.24,914.25,15.91
51.036566,961.31,911.85,12.92
51.052193,961.21,910.33,12.22
51.067820,963.88,909.52,14.98
51.083446,954.49,904.48,16.66
51.099073,950.08,904.59,12.62
51.114699,945.13,894.80,16.95
51.130326,927.20,881.42,15.86
51.145953,931.85,880.84,14.72
51.161579,918.25,872.10,12.08
51.177206,916.46,864.46,16.47
51.192833,900.29,863.00,18.68
51.208459,903.31,850.11,14.93
51.224086,896.47,850.15,13.92
51.239712,892.53,841.97,12.57
51.255339,884.49,842.19,16.51
51.270966,885.99,840.28,15.00
51.286592,879.92,834.84,11.48
51.302219,874.39,828.82,14.78
51.317846,878.63,826.30,17.99
51.333472,870.95,824.50,12.01
51.349099,862.70,823.18,14.64
51.364725,854.50,814.47,16.09
51.380352,861.59,818.98,13.91
51.395979,859.65,817.55,16.98
51.411605,851.14,814.39,16.36
51.427232,852.25,806.10,13.63
51.442859,856.45,805.16,18.41
51.458485,853.47,801.41,15.44
51.474112,842.05,797.24,13.73
51.489739,839.66,794.42,15.44
51.505365,836.90,786.18,13.25
51.520992,834.69,788.55,12.26
51.536618,830.49,787.11,15.29
51.552245,823.64,784.24,14.03
51.567872,822.93,779.67,15.50
51.583498,829.94,785.66,16.68
51.599125,824.39,782.42,17.51
51.614752,823.59,780.14,13.20
51.630378,829.14,779.44,17.03
51.646005,829.29,794.28,14.03
51.661631,842.55,801.10,17.98
51.677258,850.95,808.73,14.11
51.692885,852.30,807.04,14.39
51.708511,867.91,821.95,16.06
51.724138,884.40,832.34,15.81
51.739765,890.57,840.98,9.34
51.755391,908.75,858.54,11.82
51.771018,910.73,863.85,17.41
51.786644,915.49,871.17,17.55
51.802271,930.74,884.43,15.25
51.817898,940.04,891.82,17.55
51.833524,946.08,899.02,13.10
51.849151,949.29,905.25,15.55
51.864778,960.35,907.13,17.57
51.880404,958.27,919.40,19.15
51.896031,960.55,920.44,16.58
51.911657,960.53,912.62,12.34
51.927284,966.19,915.10,19.33
51.942911,961.90,911.48,14.89
51.958537,958.66,906.12,12.50
51.974164,951.71,900.08,13.05
51.989791,948.72,900.58,14.58
52.005417,934.84,891.82,13.35
52.021044,931.32,885.20,14.26
52.036670,925.50,877.08,15.82
52.052297,922.08,869.74,16.80
52.067924,918.27,868.06,14.61
52.083550,903.95,857.82,17.84
52.099177,899.45,855.88,14.09
52.114804,893.51,845.43,14.56
52.130430,883.90,839.89,19.86
52.146057,884.78,836.18,16.43
52.161684,877.35,837.44,14.16
52.177310,877.64,832.94,16.21
52.192937,872.29,826.74,14.57
52.208563,870.41,825.51,16.83
52.224190,867.02,824.91,17.69
52.239817,861.46,816.57,14.41
52.255443,865.86,815.21,17.74
52.271070,859.90,820.30,11.50
52.286697,854.18,815.34,13.36
52.302323,852.23,815.12,16.35
52.317950,852.47,807.35,15.14
52.333576,856.26,805.32,14.50
52.349203,839.11,807.44,13.52
52.364830,836.13,796.70,16.00
52.380456,837.33,796.13,16.39
52.396083,824.54,789.08,12.48
52.411710,830.37,785.63,16.51
52.427336,822.41,778.70,15.60
52.442963,822.07,779.91,14.62
52.458589,814.63,772.57,13.06
52.474216,827.12,778.67,12.91
52.489843,822.18,781.01,12.37
52.505469,824.71,783.93,16.94
52.521096,836.03,788.09,15.88
52.536723,836.79,796.18,15.43
52.552349,838.40,796.90,15.59
52.567976,851.44,808.37,13.56
52.583602,859.69,821.68,14.09
52.599229,876.42,827.33,13.31
52.614856,880.14,838.43,12.53
52.630482,897.71,842.83,14.37
52.646109,907.95,861.04,14.55
52.661736,911.14,865.69,16.91
52.677362,923.46,871.77,19.51
52.692989,932.14,887.09,11.38
52.708615,951.03,897.98,13.34
52.724242,946.69,901.15,16.64
52.739869,956.28,908.85,15.91
52.755495,968.18,911.40,15.27
52.771122,957.68,914.43,14.31
52.786749,958.96,910.74,16.14
52.802375,956.68,910.85,14.40
52.818002,959.99,909.36,14.76
52.833629,954.71,908.15,12.09
52.849255,954.85,905.41,13.69
52.864882,943.53,899.26,14.45
52.880508,936.22,891.02,16.09
52.896135,938.73,889.50,15.26
52.911762,932.35,882.79,11.53
52.927388,919.10,874.76,12.68
52.943015,911.89,867.41,17.00
52.958642,910.45,861.21,14.18
52.974268,903.83,857.47,16.31
52.989895,896.50,853.48,11.29
53.005521,889.33,845.00,11.99
53.021148,884.29,842.69,16.55
53.036775,881.53,837.10,17.69
53.052401,883.18,838.36,14.08
53.068028,868.01,828.09,15.27
53.083655,864.71,824.41,15.32
53.099281,881.29,822.76,16.09
53.114908,866.90,821.79,12.52
53.130534,867.02,817.95,16.33
53.146161,862.83,817.59,15.20
53.161788,855.62,816.52,13.12
53.177414,850.66,813.29,13.44
53.193041,848.72,810.82,12.56
53.208668,855.10,808.45,14.69
53.224294,848.09,805.58,13.01
53.239921,838.23,803.39,13.90
53.255547,832.67,788.83,12.31
53.271174,832.46,793.05,9.48
53.286801,830.58,777.95,19.41
53.302427,829.60,782.56,13.41
53.318054,820.69,783.19,16.64
53.333681,815.87,780.15,12.32
53.349307,820.18,776.34,14.11
53.364934,822.34,784.16,11.12
53.380560,830.97,781.57,15.13
53.396187,833.28,787.20,18.75
53.411814,844.67,794.29,16.33
53.427440,844.66,798.98,13.23
53.443067,850.49,807.76,15.58
53.458694,868.76,823.12,17.56
53.474320,872.11,826.61,16.73
53.489947,876.01,835.26,15.23
53.505573,889.41,846.50,16.37
53.521200,909.37,860.37,12.35
53.536827,915.25,871.10,12.31
53.552453,923.58,875.46,16.97
53.568080,932.22,892.34,13.37
53.583707,945.21,893.50,16.20
53.599333,944.46,906.17,12.36
53.614960,954.56,908.34,13.68
53.630587,960.14,906.11,17.61
53.646213,957.36,918.69,17.51
53.661840,968.79,920.44,11.87
53.677466,966.47,912.22,14.04
53.693093,962.71,912.26,16.39
53.708720,965.19,912.77,16.01
53.724346,952.00,905.91,14.21
53.739973,947.73,911.27,18.59
53.755600,939.20,899.47,13.71
53.771226,940.11,893.22,13.80
53.786853,925.14,888.60,17.07
53.802479,926.01,876.40,15.98
53.818106,909.77,866.96,14.55
53.833733,911.39,863.61,14.64
53.849359,901.81,855.68,16.51
53.864986,895.29,846.20,15.51
53.880613,894.43,845.24,16.62
53.896239,883.63,840.95,13.41
53.911866,888.06,833.65,16.95
53.927492,879.22,829.41,16.06
53.943119,871.40,827.02,14.35
53.958746,870.92,824.53,13.93
53.974372,875.43,822.54,15.58
53.989999,867.53,821.97,14.31
54.005626,862.18,821.97,15.75
54.021252,867.66,816.27,15.19
54.036879,858.86,823.21,14.92
54.052505,857.62,816.47,13.99
54.068132,854.62,814.09,15.39
54.083759,853.04,803.13,15.06
54.099385,839.76,798.61,13.10
54.115012,839.56,798.33,16.57
54.130639,837.51,796.60,13.60
54.146265,835.82,794.65,15.73
54.161892,831.49,785.59,15.51
54.177518,824.97,784.56,15.06
54.193145,823.09,783.13,16.35
54.208772,821.17,780.99,13.28
54.224398,828.92,782.71,11.52
54.240025,831.08,780.90,12.75
54.255652,832.59,784.47,13.81
54.271278,830.43,795.66,14.81
54.286905,840.12,795.82,16.11
54.302532,839.98,798.43,14.42
54.318158,849.22,809.09,10.57
54.333785,856.76,818.63,18.63
54.349411,871.01,822.30,16.44
54.365038,884.70,834.04,16.65
54.380665,889.05,845.15,15.75
54.396291,894.34,853.23,13.59
54.411918,916.97,865.75,18.01
54.427545,923.40,873.44,13.37
54.443171,937.97,887.56,11.20
54.458798,945.06,895.72,13.39
54.474424,938.91,901.77,12.71
54.490051,954.99,913.95,16.95
54.505678,960.87,912.40,14.05
54.521304,961.64,918.88,12.58
54.536931,965.24,916.83,14.91
54.552558,967.36,918.26,12.86
54.568184,973.80,914.45,16.89
54.583811,963.38,909.76,14.77
54.599437,957.17,907.40,14.95
54.615064,951.93,903.33,13.71
54.630691,942.72,904.05,14.31
54.646317,941.19,895.91,17.87
54.661944,934.43,880.56,18.05
54.677571,921.82,885.15,19.04
54.693197,926.40,870.89,14.19
54.708824,910.43,863.00,16.67
54.724450,906.07,863.86,14.85
54.740077,900.93,853.20,12.29
54.755704,891.33,848.52,15.69
54.771330,898.96,840.28,15.89
54.786957,887.95,835.75,15.21
54.802584,882.11,831.78,16.62
54.818210,875.61,832.76,12.11
54.833837,868.99,830.27,15.90
54.849463,870.31,829.55,12.55
54.865090,873.56,824.32,14.80
54.880717,865.76,823.99,14.89
54.896343,857.98,818.25,16.70
54.911970,865.81,811.38,14.25
54.927597,859.06,818.30,14.91
54.943223,861.09,811.40,13.90
54.958850,851.65,809.34,12.05
54.974477,849.43,805.96,13.79
54.990103,843.43,803.90,17.81
55.005730,841.13,791.87,12.84
55.021356,833.25,794.31,16.15
55.036983,831.96,798.12,10.99
55.052610,824.47,792.77,13.79
55.068236,835.64,787.97,10.82
55.083863,823.86,784.86,15.81
55.099490,832.58,782.78,13.48
55.115116,820.21,791.23,17.87
55.130743,826.84,784.12,16.20
55.146369,835.61,789.72,14.18
55.161996,836.59,792.84,15.10
55.177623,838.29,804.93,14.26
55.193249,846.33,805.32,17.01
55.208876,860.91,813.21,11.14
55.224503,865.14,819.30,16.37
55.240129,874.94,841.00,13.28
55.255756,886.40,848.11,13.77
55.271382,897.12,856.56,15.57
55.287009,909.28,866.39,16.54
55.302636,923.50,874.60,10.56
55.318262,928.93,885.86,12.35
55.333889,945.79,890.79,12.80
55.349516,941.66,900.66,14.04
55.365142,952.21,904.12,17.04
55.380769,954.85,909.74,14.14
55.396395,962.95,919.62,13.81
55.412022,965.53,911.34,16.05
55.427649,962.07,918.81,13.36
55.443275,966.07,914.53,16.65
55.458902,957.15,912.50,14.74
55.474529,957.22,908.84,17.14
55.490155,957.82,910.22,18.86
55.505782,952.77,900.46,13.59
55.521408,946.18,893.81,16.26
55.537035,936.19,883.43,12.08
55.552662,922.40,888.58,15.54
55.568288,920.40,879.48,15.95
55.583915,914.64,872.07,15.63
55.599542,913.23,861.72,16.12
55.615168,907.85,852.00,15.46
55.630795,892.61,850.54,19.09
55.646422,899.57,844.72,15.24
55.662048,884.05,845.70,17.24
55.677675,886.20,835.68,15.04
55.693301,881.86,833.93,15.86
55.708928,873.80,835.85,19.80
55.724555,872.58,836.47,13.88
55.740181,868.37,831.77,14.82
55.755808,873.32,817.32,10.22
55.771435,864.86,822.28,12.42
55.787061,867.18,818.47,14.66
55.802688,857.36,817.25,13.24
55.818314,848.72,814.16,10.79
55.833941,858.18,813.29,14.66
55.849568,849.96,807.24,9.67
55.865194,841.38,804.39,12.92
55.880821,842.19,800.47,17.33
55.896448,832.06,797.01,14.66
55.912074,832.02,792.71,14.88
55.927701,825.46,790.10,13.49
55.943327,827.47,786.89,15.85
55.958954,818.50,786.45,14.74
55.974581,824.15,785.95,14.42
55.990207,826.54,786.88,14.40
56.005834,832.08,785.04,15.67
56.021461,831.70,786.79,14.79
56.037087,833.03,794.63,10.22
56.052714,836.71,796.90,14.45
56.068340,847.50,810.22,13.24
56.083967,858.53,809.25,12.95
56.099594,869.53,822.31,11.26
56.115220,870.96,829.46,16.09
56.130847,892.51,844.04,13.79
56.146474,899.57,853.68,14.16
56.162100,914.09,864.01,17.71
56.177727,917.72,872.87,16.56
56.193353,930.41,886.57,13.89
56.208980,944.93,894.10,18.59
56.224607,943.02,899.71,15.09
56.240233,963.65,906.38,15.71
56.255860,963.36,916.69,14.16
56.271487,968.63,913.03,17.00
56.287113,971.88,917.66,15.31
56.302740,965.10,923.37,16.57
56.318366,970.58,916.83,14.62
56.333993,967.55,915.41,16.46
56.349620,964.77,915.72,13.59
56.365246,958.36,912.93,16.53
56.380873,950.75,899.30,16.10
56.396500,942.42,905.46,11.90
56.412126,937.73,893.70,19.33
56.427753,936.95,878.21,15.80
56.443380,924.81,877.29,13.69
56.459006,918.36,872.36,16.32
56.474633,905.62,863.52,15.95
56.490259,907.70,862.54,14.86
56.505886,897.45,852.06,15.64
56.521513,894.29,849.96,12.87
56.537139,885.64,848.80,18.31
56.552766,885.89,838.99,13.54
56.568393,881.12,843.52,16.49
56.584019,883.33,831.42,13.76
56.599646,874.20,831.22,16.23
56.615272,873.68,835.85,18.67
56.630899,867.29,820.93,15.17
56.646526,867.05,819.39,17.74
56.662152,869.77,822.18,10.96
56.677779,863.51,819.92,17.90
56.693406,859.22,814.61,16.20
56.709032,855.77,811.26,13.99
56.724659,850.64,811.36,14.07
56.740285,844.38,803.12,18.37
56.755912,843.96,801.88,13.84
56.771539,839.34,808.88,12.98
56.787165,830.63,791.39,16.52
56.802792,831.59,792.36,15.43
56.818419,831.13,785.63,14.49
56.834045,824.67,792.39,14.78
56.849672,826.43,789.77,13.93
56.865298,826.51,784.62,13.01
56.880925,819.74,787.45,15.35
56.896552,825.30,788.62,15.21
56.912178,835.88,795.33,13.85
56.927805,836.83,792.78,16.78
56.943432,849.55,803.20,18.02
56.959058,851.72,806.10,16.13
56.974685,858.45,817.85,12.98
56.990311,869.01,834.04,19.04
57.005938,879.59,840.16,12.44
57.021565,893.60,847.65,13.88
57.037191,907.04,863.56,10.38
57.052818,914.43,872.77,11.16
57.068445,931.88,884.32,17.39
57.084071,934.32,888.92,16.42
57.099698,948.45,897.84,14.76
57.115325,959.13,905.61,19.12
57.130951,966.19,910.72,15.57
57.146578,968.57,917.11,15.00
57.162204,974.07,923.75,14.12
57.177831,977.97,918.51,13.83
57.193458,969.62,916.55,11.86
57.209084,967.22,921.62,14.08
57.224711,961.00,914.32,14.07
57.240338,968.98,915.78,15.21
57.255964,960.63,907.58,14.28
57.271591,948.33,905.43,13.37
57.287217,945.55,891.28,15.95
57.302844,933.27,884.87,14.73
57.318471,933.62,881.45,14.13
57.334097,921.23,870.94,16.13
57.349724,919.15,866.01,16.69
57.365351,913.11,864.80,16.28
57.380977,906.42,859.04,12.47
57.396604,899.57,854.38,15.95
57.412230,892.06,848.22,15.27
57.427857,889.70,841.94,17.31
57.443484,885.92,837.72,16.50
57.459110,881.05,837.48,16.47
57.474737,879.51,831.51,11.54
57.490364,879.48,833.89,15.61
57.505990,874.50,830.50,16.48
57.521617,873.98,823.65,15.17
57.537243,868.37,823.17,14.29
57.552870,867.06,824.64,13.35
57.568497,862.96,819.64,14.17
57.584123,856.67,813.86,13.06
57.599750,854.39,817.22,16.16
57.615377,852.89,808.29,13.81
57.631003,848.48,801.96,14.15
57.646630,840.53,798.60,12.98
57.662256,835.36,801.34,14.91
57.677883,834.69,789.84,14.47
57.693510,831.75,792.03,17.04
57.709136,833.22,788.55,14.45
57.724763,826.19,791.95,14.18
57.740390,821.41,791.08,10.81
57.756016,829.25,788.30,12.03
57.771643,830.47,791.34,17.35
57.787270,829.74,794.70,18.11
57.802896,842.97,799.48,16.62
57.818523,850.29,801.28,16.87
57.834149,846.02,810.08,10.34
57.849776,858.62,821.54,14.66
57.865403,875.63,826.24,17.05
57.881029,886.05,836.96,10.19
57.896656,893.70,849.24,13.89
57.912283,908.07,856.88,10.23
57.927909,918.59,874.13,14.86
57.943536,931.79,881.45,13.35
57.959162,940.47,889.40,19.13
57.974789,953.68,903.41,15.10
57.990416,953.60,902.15,13.20
58.006042,959.43,915.84,12.23
58.021669,976.68,916.55,17.10
58.037296,972.44,919.76,16.22
58.052922,967.29,920.46,13.97
58.068549,982.03,924.35,19.56
58.084175,973.83,920.64,13.94
58.099802,970.43,914.15,17.97
58.115429,962.15,911.82,13.55
58.131055,964.05,911.83,16.95
58.146682,963.93,897.11,14.78
58.162309,946.60,902.69,14.17
58.177935,943.66,894.07,15.06
58.193562,935.45,884.26,16.23
58.209188,928.20,878.03,15.94
58.224815,918.75,867.26,17.95
58.240442,914.65,861.00,16.39
58.256068,909.77,856.76,16.30
58.271695,911.62,854.42,18.45
58.287322,895.53,848.31,16.60
58.302948,888.33,844.21,16.32
58.318575,890.45,848.43,15.45
58.334201,876.18,839.23,14.37
58.349828,879.13,840.91,16.21
58.365455,879.43,835.45,16.29
58.381081,874.77,835.67,14.97
58.396708,874.17,828.82,13.70
58.412335,869.97,826.91,11.65
58.427961,871.15,826.22,14.05
58.443588,866.48,819.14,15.38
58.459215,865.55,825.01,15.57
58.474841,856.72,810.12,10.53
58.490468,850.59,810.20,14.77
58.506094,845.84,812.76,13.67
58.521721,845.35,806.26,15.21
58.537348,842.09,798.46,17.44
58.552974,842.34,793.19,15.10
58.568601,829.11,796.47,17.12
58.584228,828.41,787.54,13.58
58.599854,822.19,784.41,13.53
58.615481,830.46,792.78,13.37
58.631107,820.80,788.81,13.12
58.646734,834.97,793.12,16.57
58.662361,836.56,791.55,13.45
58.677987,841.52,803.96,14.18
58.693614,838.84,802.07,16.90
58.709241,856.24,808.31,12.36
58.724867,862.79,818.44,14.23
58.740494,876.24,824.38,14.46
58.756120,883.06,837.86,14.81
58.771747,890.08,848.90,13.62
58.787374,905.77,859.20,14.54
58.803000,910.43,866.03,13.70
58.818627,923.13,883.25,13.67
58.834254,933.71,887.99,19.18
58.849880,946.83,894.70,13.83
58.865507,958.32,907.83,13.00
58.881133,965.21,911.05,15.85
58.896760,971.00,914.48,19.36
58.912387,972.64,921.28,18.22
58.928013,974.44,924.37,14.51
58.943640,973.75,924.97,13.61
58.959267,977.34,919.90,11.59
58.974893,975.04,918.47,16.47
58.990520,978.55,923.18,15.28
59.006146,966.32,917.82,14.86
59.021773,956.68,911.71,15.37
59.037400,950.70,911.11,16.43
59.053026,946.50,894.38,17.56
59.068653,940.11,889.32,14.21
59.084280,932.75,880.28,14.97
59.099906,925.14,872.69,15.76
59.115533,921.66,871.96,17.05
59.131159,914.20,866.54,17.75
59.146786,912.50,855.39,12.70
59.162413,902.04,851.20,14.97
59.178039,895.49,848.52,15.01
59.193666,892.01,847.03,13.51
59.209293,886.15,842.12,17.25
59.224919,889.28,838.35,17.20
59.240546,881.77,834.32,18.07
59.256173,885.16,836.44,18.93
59.271799,875.91,826.71,14.70
59.287426,867.70,831.03,17.44
59.303052,874.38,829.89,13.45
59.318679,862.84,826.67,12.39
59.334306,867.68,822.82,17.89
59.349932,856.23,818.36,16.15
59.365559,857.25,813.39,16.60
59.381186,854.47,812.52,13.00
59.396812,846.56,809.45,15.09
59.412439,848.58,804.23,13.39
59.428065,842.28,799.03,17.82
59.443692,833.90,797.74,17.61
59.459319,835.02,790.90,13.36
59.474945,835.24,790.62,19.83
59.490572,834.90,785.69,14.37
59.506199,833.62,786.96,15.96
59.521825,837.39,791.14,17.38
59.537452,833.76,788.48,17.02
59.553078,835.13,796.43,13.66
59.568705,848.80,797.18,15.94
59.584332,854.14,808.03,14.49
59.599958,863.15,813.95,14.57
59.615585,866.42,823.08,15.52
59.631212,882.97,832.09,16.58
59.646838,900.92,844.70,15.27
59.662465,903.05,857.33,16.75
59.678091,914.35,863.34,14.73
59.693718,930.53,874.45,14.55
59.709345,933.96,887.22,18.11
59.724971,943.24,895.73,16.27
59.740598,957.43,903.89,19.69
59.756225,965.04,909.27,13.44
59.771851,964.83,912.39,18.68
59.787478,977.10,919.04,16.11
59.803104,981.56,923.76,12.97
59.818731,984.57,927.89,12.62
59.834358,980.09,926.97,17.63
59.849984,978.51,917.50,16.86
59.865611,978.47,918.59,20.10
59.881238,963.46,918.09,12.58
59.896864,961.29,911.80,13.67
59.912491,960.01,904.93,15.88
59.928118,952.33,896.39,17.88
59.943744,945.42,889.39,16.21
59.959371,937.57,886.55,15.78
59.974997,924.27,883.25,15.51
59.990624,926.02,875.49,15.56
60.006251,919.84,868.19,15.67
60.021877,905.95,861.52,12.59
60.037504,898.28,859.46,18.66
60.053131,896.54,850.26,18.97
60.068757,896.28,849.61,14.35
60.084384,892.18,847.68,15.09
60.100010,889.36,839.81,12.36
60.115637,889.98,837.35,13.79
60.131264,887.18,835.43,13.94
60.146890,889.38,830.86,14.13
60.162517,884.23,833.39,12.57
60.178144,873.78,829.45,12.36
60.193770,866.34,824.19,17.68
60.209397,869.02,827.71,13.06
60.225023,861.82,818.80,14.17
60.240650,857.64,819.82,16.44
60.256277,858.75,808.73,13.27
60.271903,860.19,812.78,13.28
60.287530,855.85,808.25,15.42
60.303157,836.46,800.17,18.55
60.318783,841.32,803.97,17.28
60.334410,843.08,793.56,15.12
60.350036,838.04,795.46,15.77
60.365663,831.38,790.94,14.20
60.381290,828.24,787.94,17.60
60.396916,830.94,791.17,15.06
60.412543,836.56,795.44,13.87
60.428170,837.67,796.73,14.65
60.443796,844.92,806.97,14.66
60.459423,850.58,809.24,16.69
60.475049,851.93,819.69,15.15
60.490676,868.61,818.58,18.49
60.506303,884.34,828.76,13.66
60.521929,885.19,839.57,16.27
60.537556,894.11,843.50,17.43
60.553183,911.48,860.80,14.75
60.568809,914.18,872.09,13.49
60.584436,936.90,879.91,12.43
60.600063,942.69,891.76,12.97
60.615689,948.89,901.09,15.70
60.631316,956.47,905.13,16.15
60.646942,967.67,909.98,13.04
60.662569,976.46,918.32,18.92
60.678196,976.42,924.09,15.25
60.693822,979.45,923.54,14.66
60.709449,981.85,927.19,12.51
60.725076,984.59,922.32,14.57
60.740702,973.71,924.78,16.43
60.756329,981.05,918.66,15.76
60.771955,970.36,915.33,14.27
