timestamp,ppg_red,ppg_infrared,ppg_ambient
0.000000,903.35,850.64,16.63
0.015627,908.77,867.73,16.28
0.031254,915.16,878.22,12.09
0.046881,933.65,888.27,14.05
0.062508,936.19,898.91,12.24
0.078135,943.50,898.28,13.91
0.093762,948.95,913.55,13.45
0.109389,953.90,916.91,15.33
0.125016,957.14,923.33,14.89
0.140643,961.57,925.90,14.72
0.156270,960.28,923.06,18.66
0.171897,959.89,925.07,14.43
0.187524,952.96,922.55,16.53
0.203151,956.26,914.23,15.41
0.218778,948.27,919.28,15.87
0.234406,944.04,904.64,16.11
0.250033,940.28,902.38,12.69
0.265660,934.29,893.13,14.36
0.281287,925.41,889.03,14.93
0.296914,924.57,877.72,13.83
0.312541,917.19,869.51,15.38
0.328168,912.55,866.66,12.84
0.343795,908.16,863.38,16.97
0.359422,897.69,853.44,16.16
0.375049,896.79,853.38,11.28
0.390676,894.47,848.04,17.38
0.406303,892.17,844.85,16.37
0.421930,893.22,839.32,13.28
0.437557,892.09,839.00,15.63
0.453184,885.69,836.05,17.35
0.468811,881.05,828.61,17.15
0.484438,883.66,833.06,17.63
0.500065,880.50,825.25,16.83
0.515692,884.82,825.59,14.52
0.531319,872.03,814.83,15.07
0.546946,876.74,813.77,14.57
0.562573,876.39,810.22,18.51
0.578200,865.49,810.58,16.71
0.593827,862.15,803.02,13.60
0.609454,861.65,800.81,15.27
0.625081,859.03,797.11,15.98
0.640708,857.69,801.49,14.55
0.656335,854.77,790.78,15.35
0.671962,852.21,788.31,16.09
0.687590,852.36,794.20,14.53
0.703217,856.64,799.38,17.49
0.718844,853.61,795.31,16.39
0.734471,858.42,799.79,13.92
0.750098,865.80,804.40,13.03
0.765725,863.58,814.34,14.83
0.781352,873.95,820.47,14.93
0.796979,882.96,828.80,15.10
0.812606,887.08,844.76,15.03
0.828233,898.72,849.58,17.38
0.843860,908.32,861.25,14.14
0.859487,918.43,873.73,15.84
0.875114,929.89,883.50,12.94
0.890741,937.26,893.24,15.47
0.906368,939.57,900.10,17.77
0.921995,949.55,911.19,17.92
0.937622,948.22,922.79,17.49
0.953249,959.73,930.99,14.23
0.968876,961.27,925.43,16.20
0.984503,959.02,928.18,13.98
1.000130,962.41,924.33,16.96
1.015757,961.72,933.57,14.75
1.031384,957.53,920.69,13.87
1.047011,952.87,919.37,14.76
1.062638,949.95,908.81,15.96
1.078265,942.72,904.59,15.71
1.093892,941.65,903.17,12.10
1.109519,929.23,892.72,11.73
1.125147,926.47,884.03,15.21
1.140774,916.72,881.08,15.34
1.156401,915.26,867.29,15.42
1.172028,913.50,867.99,11.77
1.187655,907.99,857.28,16.98
1.203282,898.00,855.53,15.73
1.218909,902.52,848.64,16.67
1.234536,897.33,850.00,16.14
1.250163,894.92,843.95,15.97
1.265790,889.99,841.50,14.69
1.281417,893.53,834.54,13.44
1.297044,884.99,838.89,13.69
1.312671,887.16,837.18,14.82
1.328298,889.08,828.95,17.62
1.343925,882.13,827.13,15.12
1.359552,878.97,825.53,16.69
1.375179,877.39,824.99,9.88
1.390806,873.32,815.23,11.74
1.406433,875.15,814.91,18.36
1.422060,866.08,811.57,16.59
1.437687,863.23,806.04,12.85
1.453314,864.09,798.67,13.78
1.468941,858.58,796.12,14.91
1.484568,859.41,789.17,12.65
1.500195,855.67,794.47,13.76
1.515822,852.53,794.88,15.81
1.531449,848.46,797.59,16.85
1.547076,851.69,794.55,16.51
1.562703,863.43,801.95,17.09
1.578331,866.41,805.25,13.14
1.593958,869.12,809.19,14.08
1.609585,870.13,818.53,13.25
1.625212,883.43,826.43,17.30
1.640839,883.88,837.31,15.26
1.656466,897.52,853.69,14.76
1.672093,905.97,861.66,14.49
1.687720,913.94,869.65,14.47
1.703347,925.66,881.86,14.70
1.718974,928.37,888.38,13.55
1.734601,940.94,893.79,13.32
1.750228,944.78,912.00,14.93
1.765855,953.65,917.29,14.46
1.781482,956.63,924.43,13.25
1.797109,962.23,922.96,17.57
1.812736,961.14,929.07,12.25
1.828363,958.49,929.41,16.05
1.843990,962.84,922.80,14.27
1.859617,957.58,922.52,17.98
1.875244,953.18,918.13,11.91
1.890871,948.87,913.90,15.72
1.906498,948.99,908.02,15.70
1.922125,942.57,901.28,14.80
1.937752,936.91,895.15,18.14
1.953379,934.83,882.52,14.07
1.969006,926.80,882.46,16.55
1.984633,921.43,869.58,10.21
2.000260,915.22,868.10,12.78
2.015887,910.53,862.25,15.52
2.031515,901.10,857.52,13.36
2.047142,900.94,856.12,15.31
2.062769,902.42,847.39,11.65
2.078396,898.99,844.14,15.62
2.094023,894.63,843.49,14.10
2.109650,891.74,835.83,11.09
2.125277,891.48,839.38,14.94
2.140904,883.79,832.34,16.65
2.156531,889.06,829.95,19.52
2.172158,880.31,829.15,15.85
2.187785,877.65,822.82,15.64
2.203412,875.27,825.37,13.22
2.219039,877.64,820.87,11.73
2.234666,871.36,812.85,16.22
2.250293,867.58,812.94,12.99
2.265920,867.32,803.19,16.16
2.281547,863.55,807.94,15.07
2.297174,859.65,802.26,16.94
2.312801,865.01,802.22,17.87
2.328428,854.96,794.30,15.39
2.344055,854.99,796.38,14.73
2.359682,856.39,794.33,14.73
2.375309,858.40,795.89,12.79
2.390936,857.41,800.08,9.62
2.406563,859.01,806.41,14.92
2.422190,865.52,810.37,18.02
2.437817,872.37,814.36,18.04
2.453444,884.32,820.93,11.63
2.469071,890.13,832.96,15.43
2.484699,899.07,847.08,13.64
2.500326,899.18,855.56,14.35
2.515953,914.04,868.74,12.55
2.531580,922.60,879.24,12.57
2.547207,931.83,887.08,18.76
2.562834,942.78,897.85,17.06
2.578461,949.61,899.43,16.30
2.594088,948.49,915.21,16.23
2.609715,957.79,924.11,15.77
2.625342,960.67,920.61,14.21
2.640969,963.68,919.33,15.60
2.656596,969.23,933.34,16.52
2.672223,966.83,927.78,11.16
2.687850,961.82,924.88,14.57
2.703477,959.67,919.89,15.13
2.719104,951.96,919.31,15.33
2.734731,953.20,913.19,15.87
2.750358,951.24,906.82,14.46
2.765985,942.83,898.13,15.29
2.781612,930.23,888.16,17.26
2.797239,924.51,891.46,14.41
2.812866,926.57,878.81,17.80
2.828493,923.98,873.88,14.31
2.844120,911.77,864.91,16.74
2.859747,905.32,857.97,15.49
2.875374,906.07,853.69,16.18
2.891001,905.83,850.83,14.31
2.906628,894.90,844.30,15.97
2.922256,895.30,838.34,18.80
2.937883,891.18,838.42,16.42
2.953510,892.69,839.75,10.62
2.969137,891.06,836.16,15.63
2.984764,885.36,836.87,14.90
3.000391,884.85,828.93,12.63
3.016018,881.22,832.16,13.83
3.031645,881.67,820.32,15.97
3.047272,877.22,825.57,12.87
3.062899,876.27,809.07,14.98
3.078526,868.29,812.61,16.76
3.094153,866.61,803.63,15.57
3.109780,866.44,811.04,12.81
3.125407,864.42,797.48,20.01
3.141034,858.98,800.48,22.28
3.156661,859.82,795.37,11.85
3.172288,856.85,794.23,14.94
3.187915,858.17,795.31,13.67
3.203542,853.98,797.90,16.21
3.219169,854.18,798.91,12.89
3.234796,867.88,801.25,12.48
3.250423,861.84,811.32,15.05
3.266050,873.92,812.96,12.94
3.281677,880.74,817.66,14.60
3.297304,885.01,825.22,13.08
3.312931,898.32,840.72,19.31
3.328558,906.90,851.37,19.65
3.344185,907.45,862.80,13.88
3.359812,919.03,875.04,16.21
3.375440,936.48,892.97,10.89
3.391067,938.71,894.98,15.98
3.406694,942.26,905.59,13.21
3.422321,957.32,916.56,15.27
3.437948,955.96,920.66,13.30
3.453575,958.54,919.98,16.15
3.469202,961.64,929.74,15.91
3.484829,961.39,932.47,11.91
3.500456,963.53,927.21,12.51
3.516083,968.55,933.73,12.01
3.531710,954.86,927.36,14.48
3.547337,954.66,918.19,12.15
3.562964,953.54,914.57,17.60
3.578591,951.04,912.60,14.90
3.594218,948.80,907.71,14.50
3.609845,940.84,895.47,15.59
3.625472,934.06,890.78,19.70
3.641099,925.78,877.08,15.57
3.656726,918.38,873.84,16.22
3.672353,915.95,869.19,12.11
3.687980,914.69,864.40,13.93
3.703607,899.94,853.41,16.97
3.719234,903.63,851.37,14.17
3.734861,902.10,851.85,14.47
3.750488,898.21,844.55,15.24
3.766115,896.85,843.13,15.15
3.781742,893.92,839.11,12.63
3.797369,895.15,834.34,14.48
3.812996,889.98,836.55,15.92
3.828624,889.72,831.15,14.26
3.844251,889.02,827.47,17.58
3.859878,883.21,827.70,12.43
3.875505,879.14,827.74,17.67
3.891132,882.04,815.69,14.49
3.906759,869.92,818.90,14.55
3.922386,869.13,809.81,17.11
3.938013,864.12,808.13,17.41
3.953640,867.30,799.95,13.59
3.969267,862.17,799.77,14.33
3.984894,863.12,795.72,12.63
4.000521,861.91,798.07,14.25
4.016148,857.50,793.02,17.11
4.031775,863.53,799.59,16.49
4.047402,860.97,795.48,15.91
4.063029,870.64,796.58,15.93
4.078656,866.92,805.75,15.67
4.094283,868.85,814.48,14.22
4.109910,876.91,825.13,12.32
4.125537,883.01,830.81,15.93
4.141164,891.86,838.05,16.19
4.156791,904.00,848.16,13.37
4.172418,909.40,864.02,15.63
4.188045,923.21,869.76,20.28
4.203672,931.80,886.80,18.93
4.219299,936.92,894.94,14.48
4.234926,948.24,906.89,10.65
4.250553,949.71,916.02,14.25
4.266180,953.34,924.23,15.82
4.281808,959.47,928.10,12.36
4.297435,964.66,931.48,15.71
4.313062,969.27,930.19,14.01
4.328689,972.82,928.53,14.68
4.344316,965.86,925.95,10.20
4.359943,961.07,924.55,17.60
4.375570,965.93,921.81,16.12
4.391197,954.16,916.17,15.76
4.406824,949.93,910.99,17.79
4.422451,941.88,909.14,16.29
4.438078,942.28,901.42,18.41
4.453705,936.46,889.08,17.85
4.469332,924.92,881.17,12.51
4.484959,914.83,882.01,17.19
4.500586,914.99,867.14,13.30
4.516213,914.71,862.43,12.07
4.531840,907.34,856.29,16.66
4.547467,908.39,858.64,13.30
4.563094,902.98,850.33,13.22
4.578721,898.88,846.20,16.25
4.594348,900.43,842.31,14.71
4.609975,895.76,838.39,12.20
4.625602,893.14,837.57,18.67
4.641229,893.48,840.49,18.24
4.656856,892.57,831.38,15.67
4.672483,879.46,833.58,18.30
4.688110,882.20,830.06,15.18
4.703737,884.05,824.18,12.19
4.719365,883.28,822.05,13.74
4.734992,878.46,819.32,18.62
4.750619,870.97,816.65,17.51
4.766246,866.32,812.12,13.99
4.781873,863.23,809.86,15.04
4.797500,865.05,799.37,15.45
4.813127,859.12,797.44,16.37
4.828754,857.20,800.95,18.24
4.844381,858.96,798.92,15.71
4.860008,858.48,796.99,13.70
4.875635,865.66,797.72,18.03
4.891262,861.80,800.49,19.66
4.906889,865.77,808.17,17.32
4.922516,868.89,814.39,14.02
4.938143,871.79,817.93,16.24
4.953770,886.83,831.69,16.58
4.969397,897.51,839.46,10.66
4.985024,907.93,846.78,12.42
5.000651,912.59,863.05,16.07
5.016278,918.01,872.29,10.19
5.031905,930.52,881.20,14.62
5.047532,939.04,895.26,15.09
5.063159,945.79,902.17,13.26
5.078786,953.53,914.04,14.26
5.094413,957.10,916.89,15.77
5.110040,965.11,924.60,16.35
5.125667,962.71,932.32,18.02
5.141294,966.36,926.75,15.06
5.156921,964.53,926.65,15.32
5.172549,967.51,929.10,14.26
5.188176,963.94,928.17,15.15
5.203803,962.30,923.98,17.36
5.219430,957.41,917.52,18.93
5.235057,948.29,908.31,15.93
5.250684,945.88,906.39,13.26
5.266311,937.49,894.84,15.74
5.281938,935.36,888.43,16.16
5.297565,924.96,877.34,15.60
5.313192,925.76,876.13,15.80
5.328819,915.97,865.11,10.74
5.344446,912.98,859.35,17.56
5.360073,911.94,858.85,14.86
5.375700,907.22,854.72,14.28
5.391327,900.01,845.89,16.86
5.406954,903.28,845.96,14.09
5.422581,900.41,842.86,14.56
5.438208,897.08,839.09,17.63
5.453835,897.48,841.07,13.35
5.469462,895.62,839.61,15.04
5.485089,892.58,832.73,10.95
5.500716,884.47,836.87,15.91
5.516343,883.45,831.08,14.23
5.531970,882.40,822.28,20.95
5.547597,882.03,818.57,11.54
5.563224,873.05,814.18,15.53
5.578851,867.17,812.54,17.99
5.594478,868.99,804.51,15.44
5.610105,864.58,806.68,15.60
5.625733,862.61,800.79,15.90
5.641360,868.14,792.92,17.21
5.656987,862.74,801.87,14.45
5.672614,857.40,798.56,13.17
5.688241,862.30,799.76,13.32
5.703868,865.11,799.29,15.21
5.719495,869.30,800.61,16.31
5.735122,868.95,809.44,12.18
5.750749,871.68,811.83,15.79
5.766376,878.58,824.59,16.99
5.782003,886.20,830.68,14.39
5.797630,894.17,838.04,15.15
5.813257,897.41,853.56,17.43
5.828884,911.86,858.76,17.13
5.844511,922.08,875.31,15.16
5.860138,931.38,882.37,17.41
5.875765,936.60,895.38,16.82
5.891392,945.52,905.86,15.07
5.907019,954.54,914.07,13.50
5.922646,954.78,918.26,12.19
5.938273,963.73,929.01,14.58
5.953900,968.47,931.86,15.67
5.969527,972.47,931.46,16.84
5.985154,971.60,930.62,14.42
6.000781,964.64,928.15,13.95
6.016408,962.26,921.44,13.15
6.032035,963.37,926.77,13.24
6.047662,952.64,918.58,15.81
6.063289,948.62,911.31,12.02
6.078917,937.79,907.48,10.36
6.094544,942.00,898.44,14.52
6.110171,931.79,886.97,12.34
6.125798,931.21,882.22,14.62
6.141425,922.15,880.77,13.94
6.157052,924.29,873.99,17.85
6.172679,910.55,864.11,15.06
6.188306,911.98,861.11,14.26
6.203933,907.10,851.27,17.93
6.219560,902.12,851.75,13.94
6.235187,901.71,847.10,15.97
6.250814,900.71,841.65,15.67
6.266441,900.04,845.07,15.94
6.282068,896.93,840.53,18.71
6.297695,889.73,838.56,15.79
6.313322,889.83,835.27,17.04
6.328949,885.75,832.21,11.69
6.344576,886.52,828.18,18.21
6.360203,880.91,820.05,14.91
6.375830,878.35,819.40,16.24
6.391457,876.09,817.85,14.61
6.407084,871.36,808.71,16.86
6.422711,868.95,808.12,19.58
6.438338,868.35,806.38,10.28
6.453965,867.42,795.27,17.80
6.469592,859.96,795.66,16.58
6.485219,858.97,799.12,12.85
6.500846,866.19,798.73,17.95
6.516473,865.67,794.36,8.68
6.532101,863.64,800.77,12.15
6.547728,866.52,796.78,12.43
6.563355,874.50,810.65,14.68
6.578982,874.70,814.28,16.25
6.594609,881.74,821.12,13.65
6.610236,888.00,834.54,14.21
6.625863,895.48,840.50,16.42
6.641490,901.54,851.42,15.90
6.657117,915.94,870.25,12.17
6.672744,922.88,874.82,17.77
6.688371,935.10,888.35,14.31
6.703998,941.51,898.36,13.12
6.719625,945.06,903.12,13.68
6.735252,958.67,916.04,14.27
6.750879,963.28,920.02,14.57
6.766506,962.09,922.54,12.08
6.782133,972.16,929.63,13.70
6.797760,970.05,936.98,14.35
6.813387,965.57,933.44,15.46
6.829014,962.00,927.11,10.62
6.844641,964.00,928.00,13.07
6.860268,958.96,921.01,18.07
6.875895,952.27,919.77,13.77
6.891522,951.54,910.43,17.22
6.907149,946.56,907.86,17.99
6.922776,937.41,897.54,16.23
6.938403,941.02,891.75,14.70
6.954030,924.73,881.77,17.42
6.969658,923.15,874.52,13.27
6.985285,918.82,865.14,16.05
7.000912,915.29,858.69,13.41
7.016539,913.29,853.60,18.97
7.032166,907.45,851.81,14.81
7.047793,905.10,854.19,18.80
7.063420,898.64,844.10,14.19
7.079047,897.84,839.82,14.84
7.094674,893.90,840.26,11.40
7.110301,889.36,840.26,12.55
7.125928,889.26,838.94,19.03
7.141555,892.72,831.32,16.17
7.157182,887.87,834.75,19.10
7.172809,884.22,824.31,15.30
7.188436,886.66,826.79,13.68
7.204063,878.54,826.08,14.35
7.219690,877.43,812.69,14.55
7.235317,874.83,810.20,13.36
7.250944,865.63,806.21,18.23
7.266571,865.83,806.77,19.24
7.282198,869.89,800.05,18.11
7.297825,863.60,798.51,16.03
7.313452,860.03,798.22,15.17
7.329079,861.40,793.35,14.41
7.344706,860.60,798.52,15.02
7.360333,862.07,802.48,14.15
7.375960,870.20,801.52,15.87
7.391587,872.99,809.47,17.04
7.407214,881.67,811.32,15.61
7.422842,885.69,827.05,12.77
7.438469,889.11,829.65,15.36
7.454096,900.28,850.22,15.85
7.469723,904.28,854.15,18.68
7.485350,913.01,860.97,12.98
7.500977,924.17,881.73,14.86
7.516604,930.98,887.74,18.26
7.532231,939.38,898.21,12.17
7.547858,953.29,909.08,16.99
7.563485,954.89,910.53,14.44
7.579112,963.38,923.53,12.38
7.594739,967.47,930.08,18.05
7.610366,968.91,924.87,13.00
7.625993,973.09,929.59,12.18
7.641620,969.47,932.91,13.03
7.657247,969.39,927.86,14.29
7.672874,967.05,924.81,11.10
7.688501,959.17,924.86,12.86
7.704128,961.00,911.46,11.72
7.719755,948.91,905.38,16.32
7.735382,941.23,903.06,18.76
7.751009,932.35,896.20,14.44
7.766636,935.26,886.42,14.22
7.782263,922.00,882.11,14.88
7.797890,919.85,872.60,13.08
7.813517,917.43,865.42,10.94
7.829144,909.28,862.44,19.09
7.844771,908.17,853.34,15.37
7.860398,904.19,855.02,14.25
7.876026,905.08,849.38,15.94
7.891653,902.74,845.13,16.89
7.907280,900.49,845.83,15.09
7.922907,894.98,835.04,16.64
7.938534,895.44,835.15,15.82
7.954161,895.38,840.78,9.71
7.969788,895.14,834.88,16.08
7.985415,886.43,832.71,13.52
8.001042,880.25,825.14,15.36
8.016669,879.88,824.52,12.76
8.032296,875.42,817.27,17.66
8.047923,869.44,812.66,16.83
8.063550,871.94,812.50,16.90
8.079177,876.12,803.22,14.64
8.094804,873.87,800.98,13.41
8.110431,862.12,802.35,11.96
8.126058,858.73,795.38,18.15
8.141685,862.19,792.50,16.04
8.157312,862.68,794.46,15.52
8.172939,862.82,800.23,14.21
8.188566,864.08,795.88,20.17
8.204193,865.62,808.00,16.09
8.219820,871.33,812.46,13.68
8.235447,879.20,822.28,16.26
8.251074,884.76,828.08,12.31
8.266701,893.83,835.66,16.74
8.282328,902.28,845.30,16.61
8.297955,913.54,860.76,16.31
8.313582,917.16,869.14,19.85
8.329210,933.72,876.55,13.78
8.344837,939.80,892.81,15.83
8.360464,945.80,902.60,14.69
8.376091,951.18,907.10,11.89
8.391718,960.50,913.87,15.06
8.407345,957.59,921.78,15.20
8.422972,969.18,928.22,12.37
8.438599,967.42,930.21,17.73
8.454226,973.44,926.46,12.17
8.469853,966.61,930.82,11.52
8.485480,967.89,926.32,14.81
8.501107,964.34,920.02,14.15
8.516734,958.03,916.33,18.35
8.532361,949.56,916.72,15.48
8.547988,945.64,907.12,15.50
8.563615,941.41,903.11,14.96
8.579242,934.64,890.47,16.46
8.594869,925.64,883.45,11.86
8.610496,925.61,874.65,17.27
8.626123,921.13,864.93,17.65
8.641750,920.39,862.61,15.23
8.657377,909.98,859.48,15.66
8.673004,904.66,852.84,12.20
8.688631,900.37,849.90,18.12
8.704258,901.11,845.18,13.80
8.719885,901.97,841.07,10.89
8.735512,899.74,843.88,17.36
8.751139,894.68,835.27,17.08
8.766767,888.25,836.37,15.15
8.782394,891.03,832.33,14.44
8.798021,886.58,825.90,18.06
8.813648,884.99,829.10,12.55
8.829275,878.24,818.05,17.38
8.844902,881.01,821.03,14.42
8.860529,881.53,816.82,15.23
8.876156,870.19,813.78,15.88
8.891783,873.47,806.65,14.09
8.907410,869.43,800.67,16.34
8.923037,861.99,803.25,16.53
8.938664,858.53,803.17,13.20
8.954291,853.06,796.70,15.33
8.969918,863.93,803.98,15.55
8.985545,858.21,795.37,15.39
9.001172,862.75,797.20,13.06
9.016799,860.47,802.90,13.15
9.032426,869.63,806.75,14.97
9.048053,874.87,807.75,13.35
9.063680,881.67,818.50,12.94
9.079307,887.76,824.84,14.59
9.094934,892.53,841.49,15.12
9.110561,902.73,851.54,15.41
9.126188,909.95,856.78,15.60
9.141815,918.56,868.16,15.66
9.157442,923.06,882.18,14.88
9.173069,945.03,891.65,12.42
9.188696,951.76,899.41,17.22
9.204323,952.70,911.42,13.49
9.219951,955.74,918.88,15.47
9.235578,962.65,922.46,12.56
9.251205,966.66,927.60,14.50
9.266832,965.06,927.24,17.29
9.282459,970.17,931.27,15.36
9.298086,963.74,927.86,11.32
9.313713,963.49,924.65,12.71
9.329340,957.24,918.65,14.27
9.344967,957.81,912.57,14.31
9.360594,954.57,911.50,16.15
9.376221,942.19,903.62,13.91
9.391848,940.66,895.23,17.28
9.407475,933.40,886.96,14.53
9.423102,932.26,882.97,17.18
9.438729,918.52,879.79,18.95
9.454356,919.34,868.87,18.18
9.469983,921.93,864.56,15.90
9.485610,911.26,858.64,14.49
9.501237,905.15,848.77,14.05
9.516864,902.61,846.31,16.37
9.532491,896.72,850.67,15.75
9.548118,898.05,841.68,15.40
9.563745,895.99,841.90,16.88
9.579372,896.90,836.16,16.54
9.594999,895.55,833.93,17.69
9.610626,888.34,835.25,12.72
9.626253,885.79,827.23,13.83
9.641880,890.19,826.07,13.87
9.657507,881.06,827.58,17.47
9.673135,879.47,819.18,13.14
9.688762,873.84,820.86,17.67
9.704389,876.33,808.19,17.74
9.720016,868.41,804.18,13.91
9.735643,869.31,798.75,14.81
9.751270,864.59,798.59,14.80
9.766897,863.63,802.33,17.83
9.782524,855.13,795.95,14.51
9.798151,857.44,791.49,12.89
9.813778,860.78,799.33,12.19
9.829405,866.60,799.10,16.51
9.845032,870.04,800.01,15.34
9.860659,866.17,803.90,16.95
9.876286,877.46,811.37,16.96
9.891913,883.61,823.76,13.71
9.907540,886.28,833.10,11.09
9.923167,888.26,839.86,11.28
9.938794,906.44,844.20,18.11
9.954421,916.04,857.88,16.89
9.970048,927.60,875.24,16.59
9.985675,931.11,879.64,14.62
10.001302,934.55,889.26,18.28
10.016929,947.39,900.25,14.41
10.032556,950.84,912.37,15.33
10.048183,961.58,919.27,12.15
10.063810,963.10,925.54,13.85
10.079437,964.21,927.27,13.47
10.095064,969.46,926.30,16.87
10.110691,969.20,928.72,12.29
10.126319,971.05,928.88,13.60
10.141946,963.24,923.24,18.16
10.157573,961.62,917.10,14.92
10.173200,963.87,912.29,16.45
10.188827,949.88,908.05,13.47
10.204454,949.19,903.79,16.56
10.220081,938.99,894.92,18.03
10.235708,934.07,883.91,14.21
10.251335,922.87,877.85,14.97
10.266962,925.05,872.15,15.69
10.282589,914.32,867.74,13.10
10.298216,913.84,863.98,14.28
10.313843,911.93,855.25,17.17
10.329470,899.90,851.89,13.00
10.345097,904.69,844.11,16.39
10.360724,900.83,846.12,13.62
10.376351,895.71,840.75,18.04
10.391978,895.00,839.16,12.98
10.407605,891.85,831.34,16.87
10.423232,891.68,832.98,13.91
10.438859,887.74,831.28,15.61
10.454486,883.71,825.01,15.01
10.470113,883.09,824.33,14.65
10.485740,878.93,822.91,15.16
10.501367,873.15,812.16,15.63
10.516994,870.96,810.94,15.75
10.532621,876.36,811.15,14.82
10.548248,866.05,804.70,13.59
10.563876,867.52,797.12,17.96
10.579503,868.11,796.31,15.50
10.595130,858.53,802.10,13.58
10.610757,863.76,791.65,17.65
10.626384,860.11,797.19,19.66
10.642011,854.13,798.00,16.16
10.657638,859.01,798.61,18.35
10.673265,864.82,802.84,16.64
10.688892,867.43,804.85,14.33
10.704519,874.05,813.19,17.92
10.720146,879.77,822.40,16.13
10.735773,883.60,829.60,15.37
10.751400,896.26,832.77,18.06
10.767027,903.23,848.51,16.23
10.782654,911.48,861.57,10.55
10.798281,921.33,869.03,13.80
10.813908,929.20,879.54,13.94
10.829535,936.69,891.93,14.76
10.845162,950.13,898.20,17.01
10.860789,953.13,912.27,15.30
10.876416,957.49,914.94,13.13
10.892043,958.67,924.86,11.96
10.907670,967.17,931.26,17.69
10.923297,971.03,922.08,16.84
10.938924,967.47,929.34,12.02
10.954551,960.77,923.32,16.24
10.970178,958.65,915.47,13.05
10.985805,956.21,916.33,12.43
11.001432,957.54,908.48,12.96
11.017060,945.56,907.53,16.95
11.032687,944.28,901.64,13.96
11.048314,943.25,890.18,16.98
11.063941,928.77,884.07,13.01
11.079568,926.89,879.05,19.52
11.095195,919.99,873.83,16.26
11.110822,912.63,859.98,15.65
11.126449,914.00,859.45,17.17
11.142076,902.98,850.75,14.84
11.157703,906.00,845.15,11.85
11.173330,897.06,848.87,15.36
11.188957,894.34,847.09,16.17
11.204584,897.13,836.97,14.34
11.220211,891.94,843.89,14.63
11.235838,889.15,837.36,13.20
11.251465,891.16,832.98,14.54
11.267092,890.77,830.90,13.45
11.282719,886.37,826.44,16.33
11.298346,882.67,826.84,15.95
11.313973,874.60,818.83,17.06
11.329600,875.18,812.56,14.27
11.345227,873.82,809.65,15.41
11.360854,871.60,808.22,15.75
11.376481,868.00,805.06,15.77
11.392108,866.72,804.02,11.72
11.407735,862.94,794.84,14.58
11.423362,856.66,792.21,17.59
11.438989,858.61,794.20,14.78
11.454616,860.81,794.55,14.43
11.470244,851.43,796.19,16.94
11.485871,866.26,790.44,15.73
11.501498,867.27,798.56,14.69
11.517125,869.90,809.68,14.48
11.532752,867.12,816.12,15.10
11.548379,879.04,817.93,13.80
11.564006,890.12,829.16,13.70
11.579633,892.83,839.03,14.36
11.595260,902.32,855.37,13.55
11.610887,915.35,858.12,13.48
11.626514,921.92,873.73,15.66
11.642141,929.40,883.66,18.90
11.657768,938.57,897.13,12.68
11.673395,944.29,907.36,14.03
11.689022,944.07,912.60,18.69
11.704649,955.49,914.01,16.90
11.720276,964.56,920.30,15.66
11.735903,967.10,923.97,14.73
11.751530,961.62,923.19,13.50
11.767157,959.71,923.53,15.17
11.782784,961.93,923.22,17.24
11.798411,958.87,919.51,17.04
11.814038,956.23,911.00,15.85
11.829665,947.46,903.43,13.75
11.845292,944.69,895.63,12.88
11.860919,940.53,898.64,16.11
11.876546,936.81,886.67,13.84
11.892173,931.53,884.74,14.38
11.907800,918.60,873.65,14.04
11.923428,916.59,865.48,16.55
11.939055,915.01,860.25,18.84
11.954682,910.20,851.76,13.83
11.970309,903.77,855.49,13.81
11.985936,903.00,846.80,16.63
12.001563,899.26,839.81,15.96
12.017190,898.68,843.30,11.20
12.032817,894.67,839.84,11.08
12.048444,892.36,838.41,17.26
12.064071,891.84,826.34,14.83
12.079698,888.44,828.54,16.70
12.095325,885.03,829.41,15.01
12.110952,885.39,828.40,15.58
12.126579,879.18,819.35,11.95
12.142206,873.05,820.57,15.67
12.157833,873.73,811.01,11.76
12.173460,871.59,804.10,12.14
12.189087,861.84,803.29,12.84
12.204714,860.98,801.91,13.74
12.220341,865.68,793.43,15.21
12.235968,853.81,792.62,13.11
12.251595,856.60,793.16,15.04
12.267222,854.85,793.44,13.87
12.282849,855.53,792.54,11.68
12.298476,857.71,792.56,14.59
12.314103,857.61,800.35,16.25
12.329730,866.88,796.30,14.81
12.345357,869.13,803.76,15.43
12.360985,875.76,814.51,11.84
12.376612,879.15,821.48,18.03
12.392239,891.95,830.75,17.05
12.407866,895.68,837.75,11.93
12.423493,903.25,852.90,11.88
12.439120,915.82,863.57,16.71
12.454747,923.69,874.43,12.15
12.470374,931.02,882.24,16.36
12.486001,939.45,889.64,12.49
12.501628,951.62,909.61,12.24
12.517255,951.39,911.86,13.79
12.532882,954.58,923.35,15.58
12.548509,957.11,922.78,19.02
12.564136,962.37,925.60,18.43
12.579763,964.74,925.95,12.63
12.595390,965.21,924.38,13.41
12.611017,963.99,920.57,16.02
12.626644,962.08,916.59,14.50
12.642271,951.10,912.04,14.54
12.657898,950.77,905.24,14.04
12.673525,944.58,896.86,13.39
12.689152,938.05,892.34,15.09
12.704779,931.64,888.34,15.44
12.720406,924.35,881.17,15.52
12.736033,917.72,873.54,15.59
12.751660,911.92,863.92,16.48
12.767287,907.13,862.34,14.70
12.782914,907.73,849.28,15.70
12.798541,900.34,845.16,18.21
12.814169,905.33,847.40,11.47
12.829796,898.00,839.25,10.80
12.845423,893.93,836.51,10.96
12.861050,889.27,834.70,13.03
12.876677,896.40,832.54,16.75
12.892304,888.16,833.15,12.99
12.907931,879.92,825.55,16.07
12.923558,883.03,827.13,13.27
12.939185,880.73,822.84,15.83
12.954812,877.09,812.82,14.60
12.970439,875.23,815.81,17.38
12.986066,869.69,804.65,13.39
13.001693,868.20,805.49,11.93
13.017320,864.93,798.58,14.02
13.032947,864.70,801.50,15.85
13.048574,858.26,792.46,16.11
13.064201,856.46,792.84,14.78
13.079828,860.28,786.26,13.82
13.095455,852.51,799.00,16.17
13.111082,851.63,792.97,13.51
13.126709,856.59,795.23,13.07
13.142336,860.61,796.32,19.05
13.157963,861.02,798.93,15.21
13.173590,872.42,808.51,15.14
13.189217,875.23,816.53,12.21
13.204844,880.84,825.50,18.67
13.220471,887.41,835.49,12.83
13.236098,896.05,847.75,15.59
13.251725,904.32,854.80,15.06
13.267353,917.60,866.83,14.39
13.282980,924.51,873.11,18.07
13.298607,933.69,886.56,18.67
13.314234,937.63,893.83,13.88
13.329861,951.57,906.80,13.85
13.345488,952.74,917.19,20.23
13.361115,955.50,913.49,17.23
13.376742,955.52,917.36,15.24
13.392369,964.51,921.38,13.62
13.407996,959.31,924.37,15.48
13.423623,962.21,923.44,17.04
13.439250,959.61,918.22,10.24
13.454877,955.46,913.69,14.53
13.470504,951.76,907.74,12.91
13.486131,947.93,904.64,16.18
13.501758,933.84,894.69,17.04
13.517385,935.01,889.00,9.41
13.533012,930.52,882.35,12.23
13.548639,917.57,876.72,12.27
13.564266,916.07,861.50,16.72
13.579893,915.04,857.30,15.69
13.595520,908.29,859.95,18.50
13.611147,907.48,854.01,16.41
13.626774,892.10,844.96,12.73
13.642401,894.00,837.84,16.02
13.658028,898.30,832.49,16.57
13.673655,890.88,837.82,17.13
13.689282,890.34,831.72,14.24
13.704909,885.72,834.91,15.01
13.720537,887.98,834.57,15.05
13.736164,878.53,821.93,12.11
13.751791,879.19,825.49,13.91
13.767418,878.84,816.68,12.65
13.783045,878.74,812.43,13.30
13.798672,872.87,815.31,14.09
13.814299,868.18,804.64,15.68
13.829926,861.25,807.30,15.06
13.845553,862.02,800.77,15.56
13.861180,856.55,796.04,17.16
13.876807,854.08,789.88,14.87
13.892434,856.05,788.03,15.60
13.908061,850.53,787.51,17.63
13.923688,850.30,793.55,12.99
13.939315,849.58,786.33,16.97
13.954942,854.82,792.20,17.17
13.970569,852.71,796.23,13.16
13.986196,862.31,801.33,16.10
14.001823,866.65,802.78,14.97
14.017450,875.64,816.82,15.47
14.033077,884.53,833.71,17.87
14.048704,890.36,832.60,14.64
14.064331,894.97,844.96,17.82
14.079958,907.60,858.46,13.76
14.095585,921.28,869.51,11.42
14.111212,930.63,877.83,14.03
14.126839,933.65,886.47,15.14
14.142466,940.92,901.88,16.86
14.158094,953.06,906.51,14.13
14.173721,953.23,918.72,15.31
14.189348,958.26,916.93,14.51
14.204975,965.45,920.13,13.76
14.220602,962.15,919.13,13.73
14.236229,961.09,919.72,12.33
14.251856,954.59,922.45,14.70
14.267483,955.58,912.20,14.62
14.283110,949.02,912.27,13.89
14.298737,946.21,905.24,16.64
14.314364,944.88,896.00,13.72
14.329991,934.54,891.21,13.97
14.345618,929.51,885.00,16.74
14.361245,925.69,876.29,12.15
14.376872,919.41,867.23,14.00
14.392499,910.96,865.96,16.29
14.408126,903.66,854.19,14.24
14.423753,904.10,851.55,19.34
14.439380,900.09,849.14,12.64
14.455007,890.66,841.30,13.12
14.470634,891.84,836.00,16.01
14.486261,895.47,835.64,11.75
14.501888,891.02,828.44,13.78
14.517515,881.26,830.92,17.45
14.533142,882.08,832.99,13.83
14.548769,880.24,826.61,12.56
14.564396,883.91,821.92,12.04
14.580023,881.78,815.45,12.32
14.595650,865.37,812.83,12.09
14.611278,871.45,806.99,12.21
14.626905,865.45,810.11,15.41
14.642532,867.39,801.65,11.92
14.658159,862.93,797.15,16.24
14.673786,857.67,794.98,15.79
14.689413,858.49,791.79,14.81
14.705040,849.97,791.60,14.45
14.720667,851.96,787.92,11.43
14.736294,852.57,786.53,10.51
14.751921,853.38,780.40,14.96
14.767548,852.05,787.21,17.53
14.783175,860.46,790.80,15.13
14.798802,865.61,796.48,13.15
14.814429,860.73,802.85,17.35
14.830056,870.55,808.29,19.18
14.845683,876.49,821.47,17.36
14.861310,884.63,826.82,16.05
14.876937,896.32,842.41,13.37
14.892564,904.11,848.89,14.78
14.908191,916.28,865.91,15.77
14.923818,917.38,872.83,13.27
14.939445,928.81,878.06,16.48
14.955072,941.89,891.34,13.91
14.970699,940.22,897.07,13.03
14.986326,950.27,912.47,13.23
15.001953,954.76,914.15,14.50
15.017580,955.52,913.00,14.05
15.033207,956.14,924.73,17.38
15.048834,952.84,923.49,15.62
15.064462,960.79,914.82,12.02
15.080089,952.79,916.53,13.22
15.095716,952.93,911.25,17.43
15.111343,942.63,904.36,18.20
15.126970,947.13,900.06,14.88
15.142597,934.58,893.03,14.62
15.158224,926.35,890.63,15.39
15.173851,925.82,880.38,14.68
15.189478,915.53,869.87,14.81
15.205105,914.05,868.07,16.98
15.220732,908.35,865.63,14.70
15.236359,901.62,851.08,15.16
15.251986,903.07,844.90,15.58
15.267613,894.72,846.86,13.24
15.283240,894.60,838.71,15.92
15.298867,891.88,837.16,12.37
15.314494,886.62,833.89,9.88
15.330121,883.91,831.29,14.17
15.345748,883.78,829.75,15.29
15.361375,880.13,826.74,12.17
15.377002,883.74,819.68,16.32
15.392629,873.44,820.38,15.06
15.408256,873.04,818.48,14.94
15.423883,875.23,810.29,15.18
15.439510,867.11,804.66,12.90
15.455137,868.19,804.62,12.48
15.470764,864.18,803.07,14.04
15.486391,849.60,795.39,11.53
15.502018,856.50,792.76,16.32
15.517646,854.99,796.84,15.27
15.533273,849.67,783.90,18.22
15.548900,850.61,789.64,15.37
15.564527,849.06,786.05,15.52
15.580154,856.24,786.87,16.76
15.595781,853.27,788.22,13.54
15.611408,861.34,794.75,16.51
15.627035,854.76,799.48,11.55
15.642662,869.02,807.77,16.23
15.658289,869.42,817.84,14.87
15.673916,881.90,822.13,15.74
15.689543,886.93,836.55,19.55
15.705170,894.80,842.71,16.50
15.720797,906.87,859.36,13.86
15.736424,908.69,870.51,16.02
15.752051,925.77,881.15,17.64
15.767678,929.56,891.40,12.86
15.783305,940.05,899.88,14.06
15.798932,947.22,902.70,12.26
15.814559,946.79,908.37,16.21
15.830186,957.60,914.15,16.50
15.845813,955.15,923.89,17.80
15.861440,956.90,918.54,19.30
15.877067,956.19,919.04,15.62
15.892694,950.79,910.34,16.95
15.908321,949.83,917.12,17.66
15.923948,951.71,907.37,14.66
15.939575,943.19,901.38,15.37
15.955203,942.41,892.69,18.35
15.970830,934.39,885.18,18.91
15.986457,922.51,885.88,16.96
16.002084,916.75,872.47,18.03
16.017711,909.94,866.25,14.55
16.033338,908.04,865.31,10.03
16.048965,907.77,852.52,17.27
16.064592,902.88,849.18,16.17
16.080219,897.90,849.31,15.85
16.095846,895.70,837.59,15.93
16.111473,884.59,829.41,16.27
16.127100,889.01,838.41,12.95
16.142727,882.86,828.25,20.17
16.158354,877.96,829.69,14.54
16.173981,879.87,826.94,14.68
16.189608,878.21,824.56,13.96
16.205235,877.14,819.13,14.04
16.220862,877.03,813.62,12.53
16.236489,869.32,816.21,16.08
16.252116,866.85,815.97,12.02
16.267743,865.70,806.87,14.44
16.283370,859.15,805.31,13.56
16.298997,863.59,802.18,16.08
16.314624,855.02,791.19,15.27
16.330251,849.93,789.85,18.08
16.345878,852.52,790.01,16.62
16.361505,847.43,786.73,16.76
16.377132,850.66,783.72,14.97
16.392759,843.72,779.41,15.02
16.408387,846.46,786.99,15.07
16.424014,855.30,793.04,14.35
16.439641,859.23,792.57,12.33
16.455268,860.94,801.01,11.17
16.470895,868.45,800.29,12.43
16.486522,866.46,819.60,13.71
16.502149,880.80,828.70,14.61
16.517776,886.72,832.75,14.34
16.533403,902.69,849.87,14.75
16.549030,905.60,863.26,17.38
16.564657,919.36,870.18,16.22
16.580284,926.50,882.99,13.06
16.595911,935.83,893.96,16.01
16.611538,935.42,898.58,17.35
16.627165,943.06,909.13,17.55
16.642792,951.95,910.19,14.70
16.658419,957.60,915.52,16.26
16.674046,958.33,921.57,15.43
16.689673,953.60,919.93,15.94
16.705300,954.76,918.87,16.30
16.720927,950.15,915.81,16.91
16.736554,954.60,907.16,12.43
16.752181,941.66,903.30,16.03
16.767808,937.02,898.54,16.54
16.783435,939.65,887.81,14.63
16.799062,928.96,881.57,15.93
16.814689,918.12,869.41,16.89
16.830316,912.59,872.69,12.99
16.845943,909.96,860.93,17.29
16.861571,905.91,858.02,14.49
16.877198,897.31,851.07,16.03
16.892825,896.55,843.00,12.46
16.908452,891.19,844.25,17.96
16.924079,893.14,834.07,14.73
16.939706,882.69,831.37,13.17
16.955333,881.28,832.49,13.32
16.970960,879.83,834.09,12.11
16.986587,879.42,824.72,14.89
17.002214,875.33,828.26,13.56
17.017841,873.98,818.31,16.04
17.033468,876.59,811.73,16.39
17.049095,870.94,807.17,20.40
17.064722,869.38,809.64,14.35
17.080349,861.05,805.20,14.30
17.095976,858.75,802.61,12.78
17.111603,853.08,800.78,13.52
17.127230,855.31,796.05,16.78
17.142857,851.82,791.77,14.23
17.158484,848.42,792.46,13.95
17.174111,848.13,787.61,13.87
17.189738,847.35,785.38,13.42
17.205365,844.26,777.08,14.92
17.220992,847.35,782.33,15.27
17.236619,849.81,785.23,12.20
17.252246,854.00,793.07,15.96
17.267873,858.26,794.54,16.33
17.283500,863.09,806.63,13.46
17.299127,865.49,810.40,15.51
17.314755,870.47,820.51,14.89
17.330382,884.81,828.56,13.17
17.346009,895.69,844.62,16.48
17.361636,899.78,853.34,12.84
17.377263,913.72,864.52,12.42
17.392890,919.41,868.12,19.13
17.408517,922.23,886.39,13.27
17.424144,934.14,895.72,16.88
17.439771,940.54,905.65,14.13
17.455398,943.99,907.41,15.31
17.471025,951.56,907.34,16.08
17.486652,951.23,914.94,15.45
17.502279,959.76,916.53,17.96
17.517906,954.51,921.97,16.89
17.533533,952.15,909.04,17.69
17.549160,950.70,914.63,17.38
17.564787,948.62,908.22,16.03
17.580414,938.36,899.32,17.09
17.596041,938.34,890.17,17.90
17.611668,931.03,886.24,12.43
17.627295,922.28,883.36,15.83
17.642922,917.72,871.47,14.82
17.658549,909.73,866.43,14.88
17.674176,904.77,860.09,20.07
17.689803,906.11,852.00,12.96
17.705430,893.96,847.55,13.56
17.721057,893.09,842.48,15.78
17.736684,888.92,836.64,16.36
17.752311,889.08,832.03,16.80
17.767939,883.88,832.66,15.15
17.783566,881.84,829.04,15.91
17.799193,877.41,827.66,17.77
17.814820,877.13,826.06,12.15
17.830447,876.31,819.87,17.00
17.846074,877.57,816.29,18.32
17.861701,870.02,814.67,18.55
17.877328,869.85,811.65,16.99
17.892955,861.99,812.26,13.95
17.908582,862.64,802.74,13.61
17.924209,854.52,800.93,17.20
17.939836,854.78,795.03,15.10
17.955463,847.10,791.15,15.46
17.971090,850.45,788.95,17.54
17.986717,848.60,786.95,18.21
18.002344,847.14,784.23,16.22
18.017971,845.79,784.35,14.71
18.033598,842.68,783.15,18.41
18.049225,847.06,781.06,13.87
18.064852,843.13,789.98,12.42
18.080479,851.90,790.87,15.02
18.096106,865.06,799.01,14.42
18.111733,862.67,804.85,14.79
18.127360,871.75,814.40,17.07
18.142987,875.90,824.35,17.37
18.158614,882.78,835.98,14.20
18.174241,895.40,849.91,14.49
18.189868,904.23,860.39,14.83
18.205496,913.54,870.57,16.92
18.221123,925.60,879.62,14.13
18.236750,932.85,890.73,13.84
18.252377,938.98,898.26,15.33
18.268004,938.62,905.05,16.98
18.283631,946.91,908.38,17.39
18.299258,954.78,914.05,14.12
18.314885,952.74,920.88,13.83
18.330512,948.96,918.75,17.00
18.346139,943.84,915.19,15.74
18.361766,951.21,913.68,12.90
18.377393,948.41,908.24,13.13
18.393020,944.81,900.58,17.85
18.408647,934.29,898.39,11.66
18.424274,928.87,890.46,19.00
18.439901,924.75,876.63,14.36
18.455528,919.05,877.23,13.83
18.471155,910.69,865.85,15.21
18.486782,904.39,859.31,14.65
18.502409,897.98,850.21,13.53
18.518036,896.52,850.97,13.88
18.533663,899.31,841.78,16.68
18.549290,890.77,844.26,14.76
18.564917,885.05,834.88,15.21
18.580544,881.83,831.00,13.71
18.596171,882.33,833.11,13.44
18.611798,884.89,823.71,13.95
18.627425,873.18,822.09,14.99
18.643052,874.18,815.87,14.19
18.658680,874.51,817.50,15.29
18.674307,871.01,811.72,18.22
18.689934,868.75,813.56,16.55
18.705561,860.33,813.18,17.26
18.721188,861.24,803.11,11.46
18.736815,859.21,799.92,14.58
18.752442,857.79,791.78,14.00
18.768069,849.03,798.14,14.63
18.783696,847.48,789.25,17.30
18.799323,846.05,785.67,13.75
18.814950,839.93,784.86,14.12
18.830577,846.22,787.11,15.92
18.846204,846.74,778.63,12.42
18.861831,846.94,788.81,15.51
18.877458,843.78,790.02,20.74
18.893085,850.83,782.08,14.62
18.908712,854.32,794.57,11.37
18.924339,856.09,800.63,14.16
18.939966,868.10,808.40,16.47
18.955593,873.93,820.51,17.06
18.971220,882.49,828.71,18.13
18.986847,894.92,843.14,14.39
19.002474,900.93,858.90,13.98
19.018101,909.49,863.66,14.43
19.033728,919.36,873.51,15.10
19.049355,926.65,883.24,16.67
19.064982,932.53,895.52,16.70
19.080609,938.77,905.20,11.74
19.096236,944.19,913.17,13.27
19.111864,947.12,916.33,16.01
19.127491,953.48,912.26,13.01
19.143118,955.28,916.50,18.43
19.158745,947.74,916.40,15.90
19.174372,948.52,910.55,17.89
19.189999,946.83,909.93,15.03
19.205626,941.51,904.77,16.30
19.221253,936.76,894.12,12.83
19.236880,926.02,897.19,13.81
19.252507,924.54,882.76,17.05
19.268134,916.90,873.83,18.93
19.283761,914.20,874.52,18.42
19.299388,910.27,864.53,14.05
19.315015,894.73,857.68,17.52
19.330642,900.79,851.55,17.16
19.346269,891.29,836.70,11.89
19.361896,888.80,842.08,16.87
19.377523,886.63,841.78,12.14
19.393150,886.25,829.11,14.86
19.408777,875.44,834.38,15.76
19.424404,881.84,829.40,16.16
19.440031,878.00,825.62,10.00
19.455658,873.60,821.62,18.68
19.471285,872.99,819.75,12.46
19.486912,874.81,818.91,16.01
19.502539,868.94,814.89,12.43
19.518166,867.86,810.86,13.93
19.533793,867.57,802.21,8.27
19.549420,859.46,801.48,17.46
19.565048,857.68,797.36,15.33
19.580675,851.88,798.66,14.63
19.596302,846.42,784.99,12.53
19.611929,843.91,785.00,15.79
19.627556,844.34,787.86,15.42
19.643183,841.29,784.27,16.29
19.658810,845.74,783.44,12.33
19.674437,841.85,780.02,14.83
19.690064,844.21,787.77,14.06
19.705691,847.77,781.83,13.94
19.721318,849.74,792.03,12.71
19.736945,855.07,804.21,14.67
19.752572,864.30,799.69,17.88
19.768199,868.98,812.29,16.36
19.783826,880.84,827.83,11.03
19.799453,889.95,835.74,15.50
19.815080,890.23,848.84,16.51
19.830707,907.72,856.41,16.26
19.846334,916.61,870.82,18.00
19.861961,916.72,881.14,15.20
19.877588,928.21,895.25,15.14
19.893215,931.37,894.49,10.99
19.908842,944.96,909.93,17.05
19.924469,947.49,906.90,13.17
19.940096,947.49,908.32,13.67
19.955723,950.43,915.72,20.01
19.971350,957.62,914.67,14.31
19.986977,947.01,919.08,13.77
20.002605,947.42,912.53,13.78
20.018232,939.95,900.77,10.13
20.033859,937.22,903.10,15.85
20.049486,931.86,895.01,14.77
20.065113,925.66,890.19,10.95
20.080740,917.09,878.03,16.48
20.096367,917.89,872.26,13.79
20.111994,910.55,860.68,9.56
20.127621,900.99,858.10,15.82
20.143248,900.55,851.44,14.29
20.158875,892.61,848.58,14.99
20.174502,892.80,841.00,15.37
20.190129,891.92,835.97,17.34
20.205756,887.26,833.86,14.54
20.221383,881.40,831.13,14.73
20.237010,881.05,824.59,19.32
20.252637,877.75,832.66,14.25
20.268264,876.87,819.34,15.17
20.283891,874.80,817.87,12.75
20.299518,863.59,815.16,18.08
20.315145,867.63,811.68,11.52
20.330772,864.62,813.64,12.73
20.346399,860.37,811.08,12.27
20.362026,855.58,804.43,12.68
20.377653,855.98,798.97,17.07
20.393280,852.75,794.51,14.57
20.408907,849.27,783.11,17.14
20.424534,844.80,787.29,17.13
20.440161,842.49,786.63,13.52
20.455789,844.82,776.13,15.16
20.471416,836.98,779.93,16.40
20.487043,844.29,782.39,14.83
20.502670,843.74,778.90,15.80
20.518297,840.65,784.06,13.66
20.533924,845.78,785.60,13.46
20.549551,847.58,793.28,10.87
20.565178,859.39,804.00,18.13
20.580805,861.48,809.48,17.87
20.596432,871.26,822.72,16.51
20.612059,884.32,836.29,11.94
20.627686,890.32,841.48,15.68
20.643313,900.65,851.15,11.80
20.658940,911.87,861.67,14.92
20.674567,918.21,881.66,14.94
20.690194,924.73,883.36,13.97
20.705821,932.16,890.73,14.85
20.721448,938.39,902.03,14.43
20.737075,946.98,908.69,17.15
20.752702,948.80,916.83,16.53
20.768329,943.08,910.57,14.40
20.783956,947.74,912.54,14.26
20.799583,949.26,917.24,12.98
20.815210,949.28,914.25,12.34
20.830837,941.97,910.82,16.36
20.846464,935.20,899.96,18.91
20.862091,930.80,899.72,16.07
20.877718,926.03,884.40,16.27
20.893345,919.52,880.41,14.83
20.908973,912.38,878.68,17.55
20.924600,913.20,874.01,16.43
20.940227,903.47,863.94,18.37
20.955854,895.33,855.66,12.60
20.971481,894.10,846.07,17.33
20.987108,890.94,846.93,13.42
21.002735,889.51,839.72,15.15
21.018362,885.59,836.74,12.82
21.033989,880.88,830.65,17.43
21.049616,880.90,828.48,13.60
21.065243,880.34,824.20,14.83
21.080870,872.77,824.70,14.51
21.096497,874.54,822.06,13.05
21.112124,869.99,813.48,14.23
21.127751,867.40,811.51,12.91
21.143378,859.41,810.26,12.46
21.159005,867.77,804.87,16.49
21.174632,859.59,801.71,14.80
21.190259,853.43,805.45,17.61
21.205886,849.44,792.37,14.56
21.221513,849.13,793.65,15.63
21.237140,845.71,787.61,15.64
21.252767,850.75,782.44,13.24
21.268394,848.20,782.20,15.77
21.284021,842.86,787.56,17.00
21.299648,838.52,779.64,13.95
21.315275,840.40,781.10,13.62
21.330902,845.83,782.60,12.84
21.346529,849.03,785.71,16.00
21.362157,849.63,794.38,14.34
21.377784,853.10,803.38,11.95
21.393411,860.16,807.38,14.78
21.409038,869.54,814.90,15.31
21.424665,873.21,825.81,14.75
21.440292,883.02,839.04,15.20
21.455919,893.24,853.79,14.78
21.471546,904.62,853.04,16.29
21.487173,916.37,876.39,15.84
21.502800,928.47,885.10,12.43
21.518427,935.87,886.93,12.97
21.534054,937.59,901.68,14.22
21.549681,940.11,903.96,13.77
21.565308,944.38,916.19,14.34
21.580935,949.15,915.57,14.63
21.596562,951.03,914.02,15.87
21.612189,949.97,922.02,14.89
21.627816,946.73,913.93,15.69
21.643443,947.61,911.86,17.09
21.659070,937.23,903.50,12.68
21.674697,935.95,902.01,16.05
21.690324,928.81,896.31,14.79
21.705951,926.69,886.56,15.36
21.721578,922.03,875.78,18.72
21.737205,915.75,868.32,11.22
21.752832,909.07,870.34,15.06
21.768459,900.83,858.00,19.28
21.784086,903.87,847.65,16.30
21.799714,895.28,845.07,14.02
21.815341,889.35,839.84,14.34
21.830968,884.86,839.99,13.71
21.846595,889.49,830.28,16.14
21.862222,878.99,837.58,13.36
21.877849,879.92,825.61,11.91
21.893476,877.35,828.14,16.13
21.909103,873.11,821.43,15.00
21.924730,874.48,820.72,13.48
21.940357,872.12,820.38,14.32
21.955984,862.68,815.61,19.43
21.971611,862.92,810.10,15.61
21.987238,860.60,808.17,12.41
22.002865,861.77,799.98,18.39
22.018492,862.70,797.65,11.50
22.034119,845.02,797.42,15.07
22.049746,852.53,789.65,14.17
22.065373,841.36,791.24,13.98
22.081000,846.12,779.59,16.69
22.096627,839.73,780.42,17.61
22.112254,841.74,778.26,16.57
22.127881,837.73,777.83,13.61
22.143508,839.71,779.40,14.27
22.159135,842.53,785.24,12.31
22.174762,850.46,784.31,12.94
22.190389,854.19,798.82,17.00
22.206016,860.18,802.09,14.71
22.221643,871.01,810.54,14.10
22.237270,870.40,819.45,12.84
22.252898,875.53,833.91,13.27
22.268525,891.89,841.99,18.10
22.284152,901.91,852.36,17.95
22.299779,902.82,859.85,15.33
22.315406,914.79,873.70,17.36
22.331033,930.27,886.38,15.03
22.346660,932.06,896.35,14.00
22.362287,938.04,899.30,13.75
22.377914,934.77,907.44,12.06
22.393541,944.82,914.14,16.23
22.409168,951.19,918.24,16.02
22.424795,950.02,916.22,15.53
22.440422,944.27,914.03,12.53
22.456049,950.02,909.83,17.74
22.471676,942.34,908.48,13.29
22.487303,941.78,903.77,15.58
22.502930,941.99,899.10,16.50
22.518557,928.18,895.98,17.86
22.534184,922.07,881.34,15.56
22.549811,924.99,873.95,17.18
22.565438,912.61,868.73,16.56
22.581065,904.89,859.90,16.46
22.596692,903.41,853.21,15.68
22.612319,896.19,850.00,20.41
22.627946,890.38,850.27,15.55
22.643573,889.11,838.17,16.35
22.659200,884.24,839.31,15.02
22.674827,880.81,830.58,14.44
22.690454,882.97,828.75,13.46
22.706082,875.62,829.96,15.72
22.721709,874.55,834.16,14.39
22.737336,875.25,819.79,14.80
22.752963,872.57,813.90,15.35
22.768590,869.52,813.60,13.21
22.784217,865.88,810.31,14.56
22.799844,870.93,805.34,14.41
22.815471,859.87,804.35,13.48
22.831098,852.91,798.87,13.10
22.846725,858.48,800.13,16.92
22.862352,848.59,798.31,16.06
22.877979,847.54,797.28,12.40
22.893606,844.75,785.29,14.49
22.909233,839.33,787.19,15.20
22.924860,836.30,781.48,18.74
22.940487,844.42,778.19,12.66
22.956114,840.43,782.50,16.95
22.971741,846.16,779.57,17.28
22.987368,849.36,784.88,13.15
23.002995,853.91,780.66,14.06
23.018622,850.77,799.61,17.07
23.034249,859.61,799.78,18.33
23.049876,860.07,813.93,16.74
23.065503,869.01,828.77,16.11
23.081130,880.28,832.62,16.57
23.096757,891.10,848.90,12.34
23.112384,900.49,862.30,13.63
23.128011,911.79,862.18,11.89
23.143638,921.47,882.69,15.01
23.159266,924.45,888.96,13.80
23.174893,935.87,898.88,17.34
23.190520,933.82,902.06,18.19
23.206147,941.86,904.72,16.05
23.221774,946.82,909.50,15.61
23.237401,949.23,916.08,15.20
23.253028,943.50,915.79,13.55
23.268655,948.87,916.95,12.60
23.284282,946.33,909.12,15.99
23.299909,938.66,905.78,15.00
23.315536,935.68,901.20,10.21
23.331163,932.33,895.98,10.90
23.346790,927.47,889.55,10.91
23.362417,923.85,883.49,16.12
23.378044,916.10,875.81,11.54
23.393671,905.17,875.95,11.47
23.409298,905.59,864.30,14.30
23.424925,901.55,861.74,19.15
23.440552,895.41,849.59,11.64
23.456179,892.73,845.91,13.90
23.471806,888.31,842.99,13.32
23.487433,883.05,834.01,9.77
23.503060,884.19,835.01,16.88
23.518687,883.64,830.59,16.12
23.534314,879.02,827.24,17.04
23.549941,873.83,825.64,13.63
23.565568,873.16,816.81,13.51
23.581195,870.26,817.87,17.85
23.596823,866.25,816.91,13.69
23.612450,869.45,813.15,14.55
23.628077,863.97,810.12,15.95
23.643704,856.46,803.83,14.43
23.659331,859.46,800.61,12.43
23.674958,854.28,798.07,16.41
23.690585,851.36,792.16,13.20
23.706212,849.21,797.13,12.76
23.721839,845.53,780.96,14.91
23.737466,836.61,784.76,15.25
23.753093,841.66,785.26,14.42
23.768720,838.69,778.22,12.26
23.784347,840.79,779.10,12.74
23.799974,839.97,783.97,16.96
23.815601,843.83,790.61,17.03
23.831228,852.03,794.45,16.34
23.846855,848.09,802.42,16.96
23.862482,859.97,809.22,16.21
23.878109,863.71,813.22,13.95
23.893736,875.09,822.34,15.73
23.909363,881.27,837.70,15.43
23.924990,894.68,848.17,13.84
23.940617,902.84,854.24,15.83
23.956244,911.42,868.09,11.43
23.971871,915.10,873.14,11.95
23.987498,925.59,890.08,19.28
24.003125,937.28,900.38,18.70
24.018752,937.00,905.42,14.02
24.034379,941.65,911.58,12.34
24.050007,947.89,914.55,20.58
24.065634,949.67,919.51,15.05
24.081261,952.10,914.63,17.24
24.096888,947.41,909.14,10.67
24.112515,946.45,912.95,14.98
24.128142,940.70,908.59,13.60
24.143769,941.21,906.76,15.70
24.159396,937.79,895.23,14.00
24.175023,930.63,892.08,14.38
24.190650,924.61,884.34,12.92
24.206277,914.79,874.88,17.88
24.221904,908.88,868.72,15.95
24.237531,903.80,862.28,14.14
24.253158,899.09,860.13,13.19
24.268785,900.01,845.41,19.82
24.284412,892.02,849.96,15.46
24.300039,884.79,841.87,13.97
24.315666,883.13,836.01,12.98
24.331293,883.93,826.86,13.48
24.346920,880.94,831.64,10.91
24.362547,879.18,822.32,16.63
24.378174,877.41,829.01,14.25
24.393801,876.75,821.86,12.53
24.409428,866.87,813.82,13.31
24.425055,869.74,812.69,16.07
24.440682,866.83,814.24,13.06
24.456309,857.67,808.45,15.26
24.471936,861.28,801.49,17.27
24.487563,854.27,802.40,15.45
24.503191,854.68,798.80,13.86
24.518818,853.42,793.08,18.89
24.534445,846.61,787.95,12.05
24.550072,843.51,787.02,16.99
24.565699,841.27,782.56,12.80
24.581326,850.45,786.32,14.40
24.596953,844.58,783.79,14.25
24.612580,847.58,794.27,14.52
24.628207,840.81,782.82,15.94
24.643834,846.69,789.63,17.08
24.659461,849.86,794.48,15.06
24.675088,856.60,796.04,14.39
24.690715,865.43,808.73,16.88
24.706342,865.42,818.42,12.31
24.721969,876.23,830.60,13.01
24.737596,885.28,843.69,15.82
24.753223,891.07,848.24,14.63
24.768850,905.12,865.73,12.48
24.784477,908.84,876.25,15.19
24.800104,918.98,880.41,17.13
24.815731,932.58,895.48,14.58
24.831358,934.88,896.98,14.53
24.846985,937.81,905.79,14.61
24.862612,941.95,908.31,14.06
24.878239,945.05,911.05,11.38
24.893866,955.37,918.35,16.36
24.909493,947.62,912.89,16.50
24.925120,950.27,914.82,13.00
24.940747,951.99,914.45,14.48
24.956375,941.60,908.38,13.30
24.972002,938.19,899.62,15.52
24.987629,933.80,895.68,14.78
25.003256,929.74,890.68,15.97
25.018883,924.29,887.33,15.67
25.034510,914.70,877.23,15.94
25.050137,909.05,867.99,14.96
25.065764,908.51,860.70,18.49
25.081391,900.52,855.89,14.46
25.097018,894.45,846.49,12.92
25.112645,892.44,846.33,18.72
25.128272,885.66,838.29,17.07
25.143899,881.69,833.60,13.90
25.159526,880.50,832.50,10.76
25.175153,884.86,834.87,12.97
25.190780,876.66,831.12,16.21
25.206407,873.39,824.57,15.82
25.222034,873.72,822.89,17.69
25.237661,875.42,819.34,15.02
25.253288,866.80,819.24,17.80
25.268915,861.20,820.72,13.61
25.284542,862.03,813.61,13.40
25.300169,861.30,808.16,12.21
25.315796,855.74,803.30,16.43
25.331423,853.60,796.10,17.87
25.347050,849.65,795.17,14.67
25.362677,846.86,792.22,12.85
25.378304,848.08,787.04,15.10
25.393932,846.87,781.02,13.91
25.409559,839.16,786.22,14.54
25.425186,840.94,785.81,13.67
25.440813,844.21,782.34,15.79
25.456440,847.21,789.65,11.58
25.472067,849.40,791.01,16.39
25.487694,856.53,794.45,14.59
25.503321,859.39,803.67,17.00
25.518948,859.95,812.70,18.75
25.534575,870.62,820.74,18.28
25.550202,881.13,829.95,15.13
25.565829,893.02,844.45,14.18
25.581456,898.33,857.95,11.23
25.597083,908.64,868.43,16.12
25.612710,920.24,871.51,12.85
25.628337,924.10,883.88,15.15
25.643964,928.55,899.09,15.39
25.659591,941.83,904.67,14.64
25.675218,936.46,911.66,14.98
25.690845,949.39,913.59,14.49
25.706472,953.04,912.59,17.50
25.722099,948.49,917.40,13.81
25.737726,948.95,915.65,14.64
25.753353,943.62,916.90,15.27
25.768980,944.17,914.89,13.74
25.784607,940.00,914.28,13.51
25.800234,935.26,902.07,12.77
25.815861,929.78,894.28,15.45
25.831488,933.91,890.48,14.07
25.847116,922.79,882.76,18.02
25.862743,915.84,868.90,18.61
25.878370,910.40,871.87,15.39
25.893997,908.42,863.30,14.52
25.909624,900.85,856.26,14.38
25.925251,900.42,848.74,15.38
25.940878,890.36,845.52,16.74
25.956505,887.47,835.73,15.74
25.972132,887.62,835.49,13.74
25.987759,884.78,831.17,12.93
26.003386,879.15,827.61,14.21
26.019013,882.84,826.66,17.88
26.034640,876.89,825.29,16.33
26.050267,877.71,826.13,14.02
26.065894,876.74,822.43,16.37
26.081521,871.83,813.29,14.49
26.097148,864.27,819.61,18.67
26.112775,866.52,808.24,16.28
26.128402,864.87,806.76,13.04
26.144029,854.81,801.94,17.76
26.159656,856.37,800.58,12.02
26.175283,852.07,789.93,16.36
26.190910,848.08,794.12,14.18
26.206537,844.53,786.39,17.15
26.222164,848.20,784.26,14.82
26.237791,849.21,780.00,16.60
26.253418,848.80,784.24,14.85
26.269045,845.47,787.58,14.85
26.284672,842.52,787.84,18.32
26.300300,852.95,798.59,14.18
26.315927,854.45,800.27,16.29
26.331554,858.94,805.77,15.41
26.347181,872.68,816.12,14.75
26.362808,874.56,821.30,14.29
26.378435,884.30,838.76,14.26
26.394062,892.38,848.60,18.97
26.409689,907.77,858.64,14.62
26.425316,907.51,867.29,17.57
26.440943,920.53,877.08,16.20
26.456570,925.53,890.15,14.17
26.472197,935.06,891.88,16.48
26.487824,936.78,902.94,14.79
26.503451,944.74,911.36,13.74
26.519078,954.00,918.44,15.07
26.534705,949.74,921.61,15.77
26.550332,955.54,921.20,14.17
26.565959,949.93,918.83,17.34
26.581586,950.16,917.11,16.43
26.597213,947.29,912.78,17.06
26.612840,943.30,910.52,16.48
26.628467,938.31,905.45,15.23
26.644094,935.25,894.88,14.16
26.659721,932.41,884.93,15.58
26.675348,918.47,883.68,13.30
26.690975,915.94,872.25,19.80
26.706602,917.40,870.49,16.35
26.722229,902.62,862.52,14.76
26.737856,901.69,857.87,15.20
26.753484,900.97,848.59,15.69
26.769111,889.77,839.88,11.64
26.784738,889.93,839.73,15.72
26.800365,885.39,835.51,13.22
26.815992,887.61,831.31,14.01
26.831619,884.59,832.19,17.50
26.847246,883.39,830.02,15.70
26.862873,879.18,823.16,16.36
26.878500,875.81,827.87,15.86
26.894127,880.28,824.73,16.71
26.909754,873.43,822.41,18.24
26.925381,872.04,817.19,16.65
26.941008,871.20,812.31,19.34
26.956635,862.84,811.30,16.39
26.972262,863.31,803.36,13.94
26.987889,852.05,803.08,17.24
27.003516,853.07,792.40,13.31
27.019143,847.38,788.84,11.57
27.034770,845.19,791.94,15.51
27.050397,844.15,786.66,13.01
27.066024,846.62,784.43,13.77
27.081651,837.63,789.95,14.00
27.097278,850.26,783.53,16.11
27.112905,848.40,789.46,14.01
27.128532,853.21,796.92,15.08
27.144159,857.74,796.89,11.31
27.159786,854.95,809.75,14.88
27.175413,868.91,816.23,14.76
27.191041,875.49,826.45,14.97
27.206668,887.51,833.79,17.64
27.222295,894.65,849.12,14.96
27.237922,900.16,855.99,14.16
27.253549,914.72,869.09,15.97
27.269176,927.55,882.34,16.09
27.284803,927.34,893.70,13.92
27.300430,932.90,899.27,17.43
27.316057,940.82,905.87,11.33
27.331684,941.54,918.19,14.93
27.347311,954.48,918.26,14.18
27.362938,948.23,918.68,17.91
27.378565,957.57,921.15,15.76
27.394192,952.12,922.38,16.37
27.409819,948.61,918.84,16.87
27.425446,950.07,914.52,14.20
27.441073,946.54,909.22,18.22
27.456700,937.63,903.09,14.68
27.472327,935.11,898.94,13.58
27.487954,927.67,893.05,15.53
27.503581,921.65,885.77,13.91
27.519208,917.34,871.47,18.53
27.534835,911.08,867.77,16.59
27.550462,907.26,862.12,17.01
27.566089,904.90,854.61,16.39
27.581716,894.93,851.18,14.57
27.597343,890.73,848.52,14.06
27.612970,895.36,837.99,20.10
27.628597,892.54,840.81,13.18
27.644225,889.03,833.99,15.07
27.659852,879.66,839.93,15.94
27.675479,879.00,830.89,15.56
27.691106,879.61,826.42,14.75
27.706733,877.79,822.84,15.24
27.722360,872.07,822.50,15.68
27.737987,874.99,816.35,15.76
27.753614,871.38,816.25,16.13
27.769241,867.09,812.87,15.61
27.784868,864.08,802.32,11.25
27.800495,859.59,802.97,15.85
27.816122,855.08,803.35,14.22
27.831749,851.83,793.03,14.95
27.847376,850.04,793.91,14.68
27.863003,849.77,787.90,15.57
27.878630,849.00,794.79,11.23
27.894257,847.51,789.30,19.40
27.909884,848.06,787.51,12.99
27.925511,850.11,792.12,15.47
27.941138,847.72,790.58,16.19
27.956765,855.67,795.47,16.74
27.972392,859.95,803.46,16.89
27.988019,862.73,807.67,15.71
28.003646,870.60,818.32,16.34
28.019273,878.28,829.63,15.41
28.034900,887.27,838.39,15.26
28.050527,895.19,848.68,14.34
28.066154,904.97,858.95,16.47
28.081781,916.80,874.05,17.50
28.097409,921.18,878.07,14.02
28.113036,935.91,891.54,14.33
28.128663,937.37,904.82,16.21
28.144290,947.72,909.30,15.89
28.159917,946.88,916.47,14.59
28.175544,952.34,921.99,15.43
28.191171,959.00,922.81,16.00
28.206798,952.14,929.83,9.63
28.222425,953.86,925.55,13.32
28.238052,950.63,916.69,17.08
28.253679,948.98,913.80,14.33
28.269306,943.94,904.68,17.64
28.284933,935.56,900.82,12.85
28.300560,937.47,896.80,16.29
28.316187,930.31,885.62,14.73
28.331814,925.65,886.34,16.18
28.347441,917.05,876.16,13.22
28.363068,911.53,877.13,18.02
28.378695,911.11,863.95,14.59
28.394322,906.76,862.18,15.49
28.409949,899.43,851.01,16.13
28.425576,897.50,847.12,12.57
28.441203,893.07,842.12,17.73
28.456830,885.92,842.87,14.83
28.472457,882.06,838.22,14.35
28.488084,890.18,833.88,12.21
28.503711,883.74,831.30,14.97
28.519338,885.97,823.01,18.36
28.534965,881.75,826.67,16.72
28.550593,877.65,827.27,15.31
28.566220,874.77,820.38,14.99
28.581847,872.98,822.55,15.34
28.597474,867.88,811.28,15.94
28.613101,863.69,810.59,17.78
28.628728,862.63,808.81,12.32
28.644355,855.25,796.81,15.20
28.659982,861.90,801.98,16.34
28.675609,850.89,793.37,18.61
28.691236,854.03,797.75,10.92
28.706863,850.49,794.03,12.33
28.722490,853.24,786.20,14.43
28.738117,850.08,788.03,11.51
28.753744,851.35,785.03,14.89
28.769371,849.90,795.05,14.82
28.784998,857.49,794.43,13.52
28.800625,865.24,803.92,13.39
28.816252,873.06,813.03,13.91
28.831879,870.94,818.54,13.61
28.847506,886.37,829.22,16.04
28.863133,885.01,838.95,14.36
28.878760,899.80,845.64,12.58
28.894387,911.07,867.97,17.14
28.910014,918.39,871.74,14.44
28.925641,931.61,883.41,12.66
28.941268,933.45,895.00,18.88
28.956895,939.08,898.23,15.21
28.972522,945.71,909.00,16.09
28.988149,949.60,913.51,14.58
29.003777,953.55,920.08,15.62
29.019404,951.80,928.41,13.03
29.035031,956.83,922.99,12.69
29.050658,956.76,923.76,13.84
29.066285,955.40,922.60,12.25
29.081912,950.72,917.18,13.67
29.097539,946.06,911.81,16.90
29.113166,948.73,906.77,15.84
29.128793,937.92,897.58,12.68
29.144420,930.42,887.30,15.62
29.160047,923.43,887.19,12.26
29.175674,923.33,880.45,16.55
29.191301,913.35,869.18,10.99
29.206928,914.60,865.43,16.36
29.222555,902.14,853.00,16.05
29.238182,897.38,854.05,10.75
29.253809,895.42,847.41,13.66
29.269436,893.54,840.36,14.57
29.285063,888.47,835.88,14.48
29.300690,888.33,836.00,17.08
29.316317,888.77,834.98,14.69
29.331944,882.59,836.36,11.90
29.347571,879.72,829.66,12.50
29.363198,877.05,830.09,12.79
29.378825,880.54,830.93,11.61
29.394452,879.00,821.69,15.19
29.410079,872.42,813.97,15.40
29.425706,864.12,815.42,14.73
29.441334,866.34,806.27,15.51
29.456961,862.55,807.00,14.51
29.472588,862.63,805.79,16.07
29.488215,851.93,798.64,15.02
29.503842,852.46,796.43,15.40
29.519469,849.55,792.32,16.57
29.535096,846.37,793.93,13.70
29.550723,843.56,788.13,12.86
29.566350,850.10,791.16,18.36
29.581977,849.70,791.91,14.79
29.597604,852.15,797.04,20.56
29.613231,857.40,804.27,13.08
29.628858,868.47,813.54,16.40
29.644485,872.18,809.30,15.17
29.660112,873.02,824.50,15.55
29.675739,884.01,833.17,9.76
29.691366,887.60,842.27,14.64
29.706993,903.98,852.59,14.07
29.722620,913.26,863.45,17.15
29.738247,917.97,874.27,14.95
29.753874,934.30,884.27,19.40
29.769501,931.42,897.74,15.01
29.785128,947.80,903.95,14.61
29.800755,947.62,916.18,14.25
29.816382,954.95,919.17,11.08
29.832009,949.31,922.46,14.18
29.847636,956.00,931.23,13.54
29.863263,962.42,925.09,17.25
29.878890,958.24,927.16,17.79
29.894518,953.71,919.15,17.54
29.910145,954.15,919.96,15.49
29.925772,947.84,912.27,16.55
29.941399,942.47,910.92,14.11
29.957026,938.74,889.32,13.60
29.972653,929.73,889.72,16.88
29.988280,922.90,881.86,16.96
30.003907,919.91,877.44,16.65
30.019534,915.42,868.46,16.13
30.035161,908.71,865.00,15.32
30.050788,904.26,861.39,12.94
30.066415,901.37,850.98,12.18
30.082042,898.26,843.74,15.20
30.097669,901.47,848.59,16.94
30.113296,898.03,844.92,15.31
30.128923,891.79,839.70,14.06
30.144550,884.99,840.51,10.80
30.160177,884.81,834.85,12.80
30.175804,880.98,824.36,10.77
30.191431,876.39,829.58,12.47
30.207058,878.86,828.19,13.17
30.222685,876.83,819.85,14.44
30.238312,873.53,821.65,12.46
30.253939,871.13,814.66,13.17
30.269566,873.74,816.13,14.02
30.285193,866.94,809.51,17.57
30.300820,862.15,801.36,11.98
30.316447,854.42,798.72,13.90
30.332074,855.14,798.39,16.23
30.347702,854.93,797.90,14.99
30.363329,852.00,790.51,14.20
30.378956,848.15,792.49,19.86
30.394583,850.73,798.71,14.44
30.410210,852.60,795.90,16.67
30.425837,851.44,800.85,17.66
30.441464,857.12,809.60,17.98
30.457091,866.02,806.36,15.89
30.472718,872.23,816.71,18.12
30.488345,882.76,828.91,16.40
30.503972,886.69,834.71,13.66
30.519599,893.51,846.12,16.74
30.535226,913.30,854.52,17.16
30.550853,917.21,872.27,12.53
30.566480,925.53,883.57,14.32
30.582107,935.36,890.55,17.74
30.597734,940.35,898.62,15.96
30.613361,944.12,910.73,18.61
30.628988,949.96,914.31,15.09
30.644615,957.05,919.32,16.78
30.660242,962.36,924.95,18.26
30.675869,959.83,919.79,11.65
30.691496,963.20,923.49,13.09
30.707123,959.10,923.03,12.57
30.722750,958.43,925.78,14.94
30.738377,954.21,916.79,18.29
30.754004,947.29,915.46,17.63
30.769631,945.92,910.55,20.21
30.785258,937.86,896.51,16.11
30.800886,928.25,891.77,10.53
30.816513,928.80,882.27,13.15
30.832140,924.29,881.19,18.95
30.847767,917.84,868.28,13.74
30.863394,908.93,864.47,15.03
30.879021,906.87,860.20,14.16
30.894648,897.59,856.79,14.72
30.910275,898.69,845.42,13.43
30.925902,895.58,848.46,17.47
30.941529,889.19,844.82,17.77
30.957156,888.30,842.89,15.80
30.972783,883.07,841.29,13.22
30.988410,887.41,837.51,13.35
31.004037,878.64,831.32,16.97
31.019664,882.24,834.11,18.49
31.035291,882.86,822.88,14.61
31.050918,880.12,823.80,13.30
31.066545,877.11,819.12,14.19
31.082172,872.38,818.82,18.10
31.097799,868.40,811.12,17.84
31.113426,863.04,807.12,13.07
31.129053,862.20,802.76,10.09
31.144680,864.45,800.88,13.68
31.160307,859.38,792.91,14.68
31.175934,856.68,800.06,13.31
31.191561,849.91,793.99,15.87
31.207188,853.81,795.41,15.36
31.222815,852.64,796.11,15.73
31.238443,852.42,794.77,14.85
31.254070,856.78,798.37,14.87
31.269697,862.05,803.10,13.26
31.285324,867.70,813.40,13.72
31.300951,876.35,821.68,11.90
31.316578,887.05,825.62,14.46
31.332205,888.02,840.39,16.55
31.347832,897.88,854.03,13.42
31.363459,905.60,859.48,13.60
31.379086,912.95,870.84,15.83
31.394713,924.82,887.99,15.07
31.410340,934.67,891.62,14.22
31.425967,941.60,904.59,12.73
31.441594,946.73,906.30,15.77
31.457221,954.39,917.66,13.35
31.472848,961.96,919.83,17.40
31.488475,957.96,928.33,13.35
31.504102,962.07,928.21,15.98
31.519729,960.50,932.51,16.63
31.535356,963.62,928.52,16.48
31.550983,957.38,921.68,17.99
31.566610,961.98,915.56,16.01
31.582237,946.08,910.47,13.33
31.597864,948.77,907.06,12.53
31.613491,940.10,904.63,17.22
31.629118,936.80,888.90,12.35
31.644745,926.84,878.09,13.80
31.660372,927.01,877.62,14.19
31.675999,912.75,873.02,15.89
31.691627,912.43,864.51,13.12
31.707254,908.82,857.73,15.01
31.722881,905.48,852.69,15.39
31.738508,899.75,851.75,13.15
31.754135,902.05,849.58,16.70
31.769762,896.06,842.92,17.44
31.785389,892.30,842.70,17.83
31.801016,889.38,831.86,14.37
31.816643,895.17,838.47,15.83
31.832270,885.79,837.16,16.45
31.847897,879.65,833.28,15.63
31.863524,885.60,820.46,12.45
31.879151,882.41,828.57,11.11
31.894778,880.27,822.92,13.64
31.910405,872.48,821.67,16.13
31.926032,873.55,810.54,17.05
31.941659,866.42,806.55,13.64
31.957286,859.22,804.44,14.84
31.972913,861.01,795.46,12.86
31.988540,859.08,794.53,15.67
32.004167,854.98,798.86,16.74
32.019794,856.33,797.79,16.36
32.035421,850.07,794.59,16.35
32.051048,855.30,790.86,12.40
32.066675,860.93,802.06,13.58
32.082302,858.37,800.95,14.28
32.097929,865.94,802.24,12.77
32.113556,868.37,815.55,12.06
32.129183,876.53,818.47,18.68
32.144811,884.37,830.97,14.23
32.160438,896.85,839.94,16.04
32.176065,898.20,852.14,15.40
32.191692,907.78,861.72,13.30
32.207319,916.96,871.40,14.27
32.222946,930.21,882.88,11.96
32.238573,934.79,889.96,13.04
32.254200,941.43,904.93,16.69
32.269827,950.76,909.31,15.35
32.285454,951.26,923.69,14.32
32.301081,960.61,922.31,13.20
32.316708,963.50,928.82,13.62
32.332335,958.97,927.72,13.86
32.347962,964.43,934.93,16.64
32.363589,963.23,926.41,16.65
32.379216,955.50,926.71,15.38
32.394843,958.80,921.18,12.22
32.410470,949.43,912.74,15.83
32.426097,946.04,904.61,15.33
32.441724,934.61,898.71,16.27
32.457351,929.94,894.28,13.98
32.472978,933.42,885.34,13.94
32.488605,918.64,876.81,15.21
32.504232,913.75,875.78,15.52
32.519859,914.28,867.85,10.77
32.535486,907.29,863.48,14.77
32.551113,899.26,853.30,16.31
32.566740,905.96,851.74,14.02
32.582367,898.22,847.91,16.04
32.597995,895.21,844.52,14.78
32.613622,890.18,841.86,15.03
32.629249,896.72,839.29,14.13
32.644876,889.98,841.33,15.95
32.660503,889.83,831.83,12.66
32.676130,887.29,832.07,15.76
32.691757,881.94,832.19,15.97
32.707384,882.61,826.15,17.62
32.723011,873.88,815.32,14.51
32.738638,874.84,821.67,15.39
32.754265,873.26,806.71,14.68
32.769892,869.02,809.39,16.56
32.785519,865.34,806.75,12.78
32.801146,859.76,801.54,14.74
32.816773,860.21,800.15,15.40
32.832400,860.05,799.43,17.32
32.848027,856.94,795.85,15.04
32.863654,860.37,795.29,15.86
32.879281,858.49,796.02,16.71
32.894908,857.63,801.36,10.58
32.910535,861.27,802.34,15.17
32.926162,865.29,807.64,14.92
32.941789,869.50,822.84,14.52
32.957416,874.59,820.70,12.68
32.973043,891.29,826.64,13.76
32.988670,896.10,839.60,13.81
33.004297,900.66,851.73,15.44
33.019924,911.49,865.22,15.25
33.035552,917.39,873.14,14.92
33.051179,934.19,881.80,13.79
33.066806,937.55,893.17,13.58
33.082433,949.03,907.01,14.72
33.098060,951.88,912.53,17.38
33.113687,955.60,922.61,15.78
33.129314,965.61,923.83,14.79
33.144941,962.75,929.13,19.02
33.160568,964.31,930.98,13.25
33.176195,959.08,931.49,10.96
33.191822,969.08,922.91,15.01
33.207449,957.62,922.67,16.42
33.223076,961.25,917.98,17.51
33.238703,954.59,920.51,11.67
33.254330,945.99,903.82,12.13
33.269957,940.46,901.23,14.76
33.285584,937.13,895.95,15.33
33.301211,930.66,890.31,16.86
33.316838,925.83,879.95,19.01
33.332465,919.68,876.42,16.53
33.348092,918.08,861.16,14.53
33.363719,907.04,859.16,14.18
33.379346,908.42,859.41,12.35
33.394973,903.37,847.58,16.46
33.410600,896.04,850.12,13.29
33.426227,897.33,848.30,12.31
33.441854,897.62,837.85,13.78
33.457481,897.07,837.72,19.31
33.473108,888.61,831.30,14.65
33.488736,894.92,832.85,15.88
33.504363,885.29,831.09,15.97
33.519990,884.60,828.08,14.02
33.535617,883.95,829.19,14.36
33.551244,878.11,822.28,13.75
33.566871,882.16,821.43,16.99
33.582498,874.01,816.57,12.50
33.598125,870.07,810.89,14.25
33.613752,866.02,805.28,17.88
33.629379,862.74,800.93,16.11
33.645006,863.66,793.47,14.99
33.660633,851.21,802.52,11.92
33.676260,862.10,798.65,12.20
33.691887,859.46,795.21,13.05
33.707514,858.53,800.23,13.31
33.723141,860.70,799.13,17.13
33.738768,863.80,803.61,15.49
33.754395,870.73,810.00,12.72
33.770022,870.50,815.45,16.19
33.785649,878.17,825.29,15.42
33.801276,886.33,831.17,12.19
33.816903,898.20,845.26,13.84
33.832530,905.44,857.44,14.65
33.848157,912.80,863.91,15.94
33.863784,924.85,875.75,15.15
33.879411,937.03,885.54,16.64
33.895038,939.69,897.10,17.63
33.910665,948.11,908.15,14.14
33.926292,948.28,914.30,11.65
33.941920,959.04,919.63,13.86
33.957547,961.25,930.43,14.23
33.973174,964.67,928.79,14.87
33.988801,965.39,932.82,12.36
34.004428,963.01,930.31,15.70
34.020055,965.43,925.85,12.30
34.035682,957.67,933.44,15.08
34.051309,957.51,924.47,11.79
34.066936,955.64,915.31,15.97
34.082563,946.02,909.08,17.11
34.098190,942.17,899.87,13.96
34.113817,939.37,895.08,14.22
34.129444,931.01,892.32,14.77
34.145071,926.57,884.26,16.35
34.160698,924.15,877.57,14.34
34.176325,913.36,868.55,10.83
34.191952,911.46,859.21,12.87
34.207579,903.09,855.19,14.98
34.223206,903.05,853.41,12.20
34.238833,903.40,847.38,19.64
34.254460,898.35,848.78,17.04
34.270087,896.03,842.85,17.57
34.285714,892.59,840.02,14.83
34.301341,895.37,841.60,16.52
34.316968,886.58,837.92,15.28
34.332595,880.31,834.50,15.20
34.348222,887.37,832.04,12.94
34.363849,881.62,822.03,14.59
34.379476,878.95,820.25,19.51
34.395104,882.35,821.44,16.99
34.410731,871.40,815.41,14.03
34.426358,879.32,812.03,13.71
34.441985,870.57,809.48,11.95
34.457612,863.36,798.41,15.88
34.473239,855.21,800.96,18.93
34.488866,859.99,798.23,13.87
34.504493,863.61,800.53,12.93
34.520120,859.34,799.55,13.55
34.535747,855.64,792.26,14.46
34.551374,859.83,797.03,14.66
34.567001,866.46,802.23,16.51
34.582628,870.85,807.59,14.26
34.598255,873.43,814.91,17.45
34.613882,881.24,821.19,14.90
34.629509,889.75,830.88,14.73
34.645136,896.64,850.09,14.96
34.660763,904.91,850.85,13.80
34.676390,914.03,865.62,16.40
34.692017,923.60,875.36,15.61
34.707644,934.22,890.39,12.99
34.723271,938.93,894.06,12.45
34.738898,949.40,910.35,17.13
34.754525,952.19,918.01,17.16
34.770152,956.29,915.64,13.74
34.785779,956.26,931.23,15.45
34.801406,968.70,923.86,16.68
34.817033,961.79,933.74,12.67
34.832661,964.44,926.71,13.48
34.848288,970.07,936.25,13.04
34.863915,962.08,931.82,14.93
34.879542,959.07,930.68,16.66
34.895169,954.98,913.91,14.89
34.910796,944.90,906.09,16.53
34.926423,947.56,902.02,14.92
34.942050,942.41,897.49,16.08
34.957677,934.88,883.46,16.09
34.973304,932.41,881.33,15.55
34.988931,923.60,874.62,17.89
35.004558,919.14,867.08,13.67
35.020185,916.03,862.98,15.25
35.035812,915.95,860.54,15.22
35.051439,907.90,856.54,18.03
35.067066,903.04,845.13,18.08
35.082693,901.43,846.47,17.57
35.098320,887.68,843.43,15.40
35.113947,896.79,840.68,15.43
35.129574,899.25,834.47,15.42
35.145201,893.32,840.35,18.59
35.160828,890.38,832.79,15.94
35.176455,889.22,829.73,13.22
35.192082,884.33,829.43,13.12
35.207709,882.67,826.17,15.08
35.223336,874.84,822.49,14.72
35.238963,872.53,819.14,13.85
35.254590,875.22,816.79,13.26
35.270217,868.18,810.51,16.64
35.285845,868.24,803.83,14.23
35.301472,863.14,803.72,15.46
35.317099,863.50,798.90,14.91
35.332726,860.15,794.82,13.88
35.348353,862.33,803.82,13.11
35.363980,859.93,799.76,15.38
35.379607,867.28,796.05,14.98
35.395234,863.29,800.07,16.00
35.410861,867.59,805.51,14.79
35.426488,872.34,816.84,12.06
35.442115,881.81,826.61,15.55
35.457742,887.64,831.64,15.21
35.473369,897.87,836.98,13.27
35.488996,905.76,844.95,12.33
35.504623,910.66,870.68,16.30
35.520250,923.74,882.28,18.38
35.535877,928.68,891.96,13.65
35.551504,937.96,897.46,15.99
35.567131,949.67,911.01,13.89
35.582758,953.33,919.93,17.35
35.598385,961.40,925.47,17.68
35.614012,963.59,927.01,18.57
35.629639,969.86,931.09,14.42
35.645266,973.57,930.99,14.47
35.660893,967.45,927.70,12.46
35.676520,964.05,924.69,15.74
35.692147,958.94,922.82,13.70
35.707774,960.78,918.42,15.04
35.723401,953.57,918.91,15.88
35.739029,947.88,906.35,12.24
35.754656,945.23,905.02,14.31
35.770283,939.16,898.14,16.05
35.785910,933.37,886.70,14.21
35.801537,922.60,885.08,18.04
35.817164,923.48,879.19,13.77
35.832791,916.31,865.97,12.48
35.848418,911.38,859.59,17.81
35.864045,906.31,856.63,13.23
35.879672,906.76,854.92,15.53
35.895299,901.09,850.62,13.09
35.910926,902.02,850.40,11.34
35.926553,896.33,845.85,15.08
35.942180,893.30,838.07,15.34
35.957807,894.80,842.26,18.31
35.973434,890.55,840.05,14.87
35.989061,887.70,836.16,13.42
36.004688,887.05,826.46,12.61
36.020315,887.09,823.15,16.73
36.035942,881.28,825.35,17.15
36.051569,875.57,818.84,15.53
36.067196,872.33,820.34,19.04
36.082823,867.55,812.03,18.48
36.098450,873.30,807.93,13.29
36.114077,864.89,804.53,17.13
36.129704,860.27,797.77,18.16
36.145331,858.17,797.19,16.49
36.160958,863.50,797.00,13.46
36.176585,860.08,801.14,14.85
36.192213,861.83,798.04,13.72
36.207840,861.52,802.68,15.52
36.223467,868.13,801.56,15.23
36.239094,875.87,813.73,13.69
36.254721,879.21,818.68,12.26
36.270348,888.51,829.17,11.68
36.285975,892.37,830.99,11.77
36.301602,898.98,844.22,14.23
36.317229,907.87,853.61,17.24
36.332856,917.71,871.51,15.09
36.348483,923.88,881.51,17.53
36.364110,934.83,880.33,14.75
36.379737,939.40,894.00,13.47
36.395364,949.81,904.22,13.69
36.410991,953.22,912.54,18.94
36.426618,962.15,921.28,17.21
36.442245,964.51,931.64,15.74
36.457872,965.93,932.97,16.43
36.473499,967.45,929.82,13.70
36.489126,973.35,931.98,12.42
36.504753,970.21,929.27,14.72
36.520380,969.85,924.77,14.47
36.536007,961.41,924.39,15.08
36.551634,956.88,918.81,13.91
36.567261,947.35,911.85,9.68
36.582888,947.09,900.32,14.26
36.598515,944.63,892.73,15.90
36.614142,936.53,889.41,13.62
36.629770,932.82,875.17,15.27
36.645397,921.68,875.50,13.93
36.661024,917.36,866.61,15.83
36.676651,911.74,865.50,16.49
36.692278,905.21,860.01,18.69
36.707905,904.57,851.45,12.73
36.723532,906.20,847.50,12.85
36.739159,902.49,849.04,14.88
36.754786,899.75,844.32,17.96
36.770413,900.07,840.84,15.97
36.786040,893.42,832.62,16.86
36.801667,891.92,837.21,15.15
36.817294,893.30,827.16,14.95
36.832921,893.82,828.21,14.64
36.848548,883.72,825.25,14.79
36.864175,885.38,824.42,12.85
36.879802,880.64,821.17,15.98
36.895429,874.77,817.40,16.02
36.911056,871.04,813.37,16.71
36.926683,873.06,804.36,14.62
36.942310,866.32,802.52,16.58
36.957937,867.25,797.26,11.58
36.973564,861.85,799.55,17.30
36.989191,859.69,793.37,16.33
37.004818,860.09,796.17,12.06
37.020445,858.84,794.64,20.85
37.036072,867.08,799.16,12.26
37.051699,869.36,803.13,12.96
37.067326,872.10,806.67,13.30
37.082954,877.04,817.18,15.58
37.098581,884.41,821.51,16.02
37.114208,886.23,826.46,14.02
37.129835,896.68,844.30,18.04
37.145462,909.92,852.43,15.41
37.161089,918.41,866.62,16.74
37.176716,921.94,873.74,13.35
37.192343,932.10,877.78,11.48
37.207970,942.45,892.85,16.47
37.223597,947.49,902.86,11.01
37.239224,954.03,912.61,14.71
37.254851,955.17,920.60,13.67
37.270478,968.72,922.56,13.99
37.286105,967.03,926.77,13.62
37.301732,969.87,935.08,19.33
37.317359,968.23,932.72,15.55
37.332986,967.25,932.89,15.78
37.348613,963.01,924.78,15.80
37.364240,963.70,919.35,16.78
37.379867,952.71,916.90,15.98
37.395494,954.31,907.59,17.21
37.411121,954.15,905.11,16.82
37.426748,941.30,891.32,13.53
37.442375,927.49,888.50,10.03
37.458002,931.47,879.21,14.34
37.473629,923.22,874.25,14.78
37.489256,915.95,870.20,14.36
37.504883,911.13,862.77,14.83
37.520510,908.56,854.68,16.84
37.536138,912.77,852.65,16.73
37.551765,904.30,852.59,16.13
37.567392,898.17,846.83,12.24
37.583019,900.63,844.96,16.18
37.598646,894.28,841.82,11.70
37.614273,893.93,835.88,18.77
37.629900,890.01,835.01,19.64
37.645527,887.32,834.61,15.43
37.661154,883.88,827.22,13.32
37.676781,887.14,821.40,17.18
37.692408,886.34,823.02,18.23
37.708035,884.93,816.37,9.65
37.723662,882.43,819.28,14.97
37.739289,875.41,814.70,13.85
37.754916,869.48,807.30,14.05
37.770543,862.78,804.63,15.54
37.786170,863.07,805.06,12.43
37.801797,859.73,802.47,12.52
37.817424,866.22,792.35,12.15
37.833051,858.31,801.38,13.66
37.848678,855.58,792.40,14.81
37.864305,871.66,796.26,14.65
37.879932,868.46,808.30,13.85
37.895559,869.69,811.77,16.22
37.911186,874.90,821.53,12.83
37.926813,876.60,822.26,18.48
37.942440,890.54,831.57,15.02
37.958067,895.49,839.51,13.41
37.973694,907.07,854.14,17.11
37.989322,919.34,868.36,14.01
38.004949,926.89,878.79,15.40
38.020576,932.39,883.81,13.27
38.036203,935.98,898.47,15.14
38.051830,946.84,906.51,15.00
38.067457,954.19,913.98,15.63
38.083084,963.78,925.20,13.27
38.098711,963.22,924.15,11.94
38.114338,965.24,923.97,14.90
38.129965,969.59,933.16,13.53
38.145592,965.14,933.30,14.31
38.161219,964.25,927.68,14.83
38.176846,962.19,926.33,11.49
38.192473,958.41,916.80,15.60
38.208100,956.20,912.60,16.30
38.223727,952.27,908.57,12.62
38.239354,943.46,901.68,18.62
38.254981,939.73,892.07,14.64
38.270608,932.03,891.99,15.92
38.286235,923.14,879.03,9.81
38.301862,924.34,874.15,13.59
38.317489,915.12,864.99,14.02
38.333116,911.95,859.69,14.39
38.348743,908.78,861.76,15.07
38.364370,904.08,856.86,16.92
38.379997,906.03,846.00,16.04
38.395624,902.88,843.68,16.02
38.411251,900.14,843.09,18.80
38.426878,893.44,839.19,15.35
38.442506,885.55,836.77,13.69
38.458133,896.39,833.09,18.63
38.473760,884.26,831.11,11.23
38.489387,886.32,832.75,16.65
38.505014,886.38,829.41,13.62
38.520641,883.51,822.05,18.81
38.536268,879.70,822.22,15.73
38.551895,873.22,813.58,18.14
38.567522,876.44,807.35,13.81
38.583149,872.79,802.00,16.05
38.598776,867.36,804.49,15.15
38.614403,869.73,797.71,15.67
38.630030,864.34,796.32,15.70
38.645657,858.89,799.33,15.66
38.661284,860.62,791.81,13.76
38.676911,861.43,793.70,14.85
38.692538,866.97,801.63,15.37
38.708165,867.58,805.33,13.98
38.723792,867.16,805.88,15.12
38.739419,875.38,813.47,15.86
38.755046,883.92,826.46,18.22
38.770673,889.25,832.50,14.65
38.786300,894.85,842.06,14.91
38.801927,908.37,853.58,15.38
38.817554,915.00,864.53,10.68
38.833181,921.19,875.45,16.47
38.848808,937.71,885.51,16.03
38.864435,941.38,894.29,16.66
38.880063,943.07,901.07,12.14
38.895690,957.73,905.53,13.94
38.911317,955.15,917.63,15.51
38.926944,958.43,927.50,16.29
38.942571,967.42,933.11,14.42
38.958198,967.52,929.29,16.81
38.973825,963.50,937.21,15.43
38.989452,960.76,927.79,14.52
39.005079,963.32,923.42,12.94
39.020706,956.38,922.72,13.42
39.036333,949.48,910.83,14.17
39.051960,954.24,905.54,13.48
39.067587,943.72,901.08,13.60
39.083214,939.74,898.91,14.85
39.098841,934.06,881.93,13.03
39.114468,922.44,881.17,14.74
39.130095,924.07,874.40,9.56
39.145722,911.40,862.14,12.34
39.161349,913.41,860.68,15.91
39.176976,913.82,852.97,16.85
39.192603,906.83,845.06,14.75
39.208230,905.62,846.53,14.45
39.223857,902.10,846.43,14.72
39.239484,895.94,843.33,12.93
39.255111,893.06,839.30,16.72
39.270738,892.08,836.15,12.43
39.286365,894.40,836.39,16.96
39.301992,892.72,833.96,14.52
39.317619,888.09,830.96,12.52
39.333247,878.73,829.54,13.09
39.348874,881.40,820.56,13.97
39.364501,875.66,811.96,19.16
39.380128,873.91,811.69,13.32
39.395755,871.49,804.77,13.14
39.411382,864.45,807.90,16.43
39.427009,861.66,797.15,17.68
39.442636,859.57,798.07,15.73
39.458263,857.87,795.74,17.37
39.473890,861.28,794.69,17.40
39.489517,857.49,794.45,16.36
39.505144,861.66,796.62,16.07
39.520771,868.74,800.47,13.19
39.536398,868.08,804.83,14.56
39.552025,867.64,807.19,16.33
39.567652,872.75,812.04,13.63
39.583279,883.35,826.56,18.74
39.598906,886.74,831.69,13.77
39.614533,896.58,846.00,13.45
39.630160,908.38,857.73,13.10
39.645787,910.40,863.39,13.66
39.661414,925.32,872.91,15.77
39.677041,936.85,886.43,15.78
39.692668,942.07,895.31,13.33
39.708295,954.66,909.12,14.80
39.723922,953.65,908.62,13.14
39.739549,958.37,919.68,14.04
39.755176,959.12,922.28,11.39
39.770803,968.71,932.15,13.56
39.786431,965.20,927.84,18.77
39.802058,968.98,926.89,18.51
39.817685,967.14,926.39,15.32
39.833312,961.31,925.70,14.87
39.848939,964.32,916.09,12.38
39.864566,950.83,913.54,14.97
39.880193,947.02,914.66,13.83
39.895820,943.50,894.08,15.20
39.911447,941.35,892.21,13.41
39.927074,933.06,884.39,14.67
39.942701,925.13,870.01,12.81
39.958328,921.96,874.33,12.88
39.973955,916.43,866.01,14.09
39.989582,907.16,861.78,14.99
40.005209,906.51,853.85,11.55
40.020836,906.63,852.54,18.09
40.036463,901.85,846.02,16.41
40.052090,895.63,845.49,14.87
40.067717,894.04,836.24,14.96
40.083344,893.01,840.74,15.96
40.098971,898.79,835.95,11.85
40.114598,889.92,832.62,16.77
40.130225,895.07,833.72,15.36
40.145852,889.12,829.88,17.78
40.161479,886.62,824.80,13.08
40.177106,879.60,827.05,17.64
40.192733,878.58,816.31,14.77
40.208360,870.02,809.28,18.35
40.223987,865.70,805.53,14.01
40.239615,863.02,812.03,15.51
40.255242,866.70,804.24,13.08
40.270869,865.50,798.20,16.63
40.286496,863.87,795.15,14.57
40.302123,858.08,793.32,13.38
40.317750,860.92,791.80,13.58
40.333377,861.42,794.64,13.93
40.349004,857.21,795.84,15.14
40.364631,865.24,800.13,12.81
40.380258,871.86,804.64,15.95
40.395885,870.16,813.49,12.39
40.411512,883.44,825.28,14.37
40.427139,887.76,831.08,15.86
40.442766,893.30,839.82,13.31
40.458393,901.61,850.98,13.86
40.474020,918.28,863.17,13.09
40.489647,924.37,876.41,17.09
40.505274,930.37,879.64,15.60
40.520901,938.67,896.68,12.47
40.536528,950.05,905.80,14.38
40.552155,952.62,906.35,16.01
40.567782,961.80,917.55,13.52
40.583409,961.72,926.46,17.08
40.599036,965.39,932.74,14.91
40.614663,965.86,930.15,12.37
40.630290,970.60,927.11,13.58
40.645917,960.26,927.86,17.85
40.661544,962.65,924.39,18.10
40.677172,954.99,922.07,16.97
40.692799,955.27,913.08,14.79
40.708426,947.22,906.19,13.72
40.724053,945.03,898.47,14.09
40.739680,936.11,887.42,13.01
40.755307,933.09,883.24,15.09
40.770934,925.75,877.29,14.92
40.786561,918.43,872.21,13.18
40.802188,911.16,866.95,13.77
40.817815,911.55,857.54,15.93
40.833442,908.58,854.75,11.77
40.849069,906.12,847.48,21.08
40.864696,897.86,844.84,11.08
40.880323,898.13,842.19,17.18
40.895950,897.53,841.35,12.45
40.911577,894.61,838.80,13.82
40.927204,891.70,837.09,12.85
40.942831,889.43,831.93,15.28
40.958458,889.15,826.27,15.82
40.974085,885.47,823.33,11.36
40.989712,878.34,820.79,14.20
41.005339,876.62,823.39,13.97
41.020966,875.04,814.80,13.70
41.036593,874.72,810.57,13.33
41.052220,870.56,807.77,16.87
41.067847,865.90,802.00,12.72
41.083474,865.83,795.83,18.38
41.099101,860.72,792.52,14.68
41.114728,858.97,794.06,16.14
41.130356,867.40,795.09,17.39
41.145983,854.83,788.32,13.25
41.161610,867.26,796.30,15.89
41.177237,859.24,793.91,14.95
41.192864,863.59,800.00,18.24
41.208491,868.60,815.13,14.62
41.224118,877.85,818.58,17.73
41.239745,881.86,819.75,15.26
41.255372,890.66,824.42,16.87
41.270999,892.25,837.04,13.23
41.286626,903.58,851.38,16.97
41.302253,912.82,860.54,12.75
41.317880,925.67,875.36,14.72
41.333507,938.01,886.53,11.91
41.349134,939.23,893.43,15.93
41.364761,942.08,907.71,12.20
41.380388,955.23,910.92,16.13
41.396015,955.08,915.99,13.16
41.411642,964.65,918.47,13.16
41.427269,961.28,926.23,15.94
41.442896,968.35,930.54,14.82
41.458523,963.06,928.46,16.12
41.474150,966.71,924.06,13.30
41.489777,957.58,917.77,10.79
41.505404,958.03,918.63,17.27
41.521031,949.16,906.55,12.02
41.536658,943.27,905.15,15.29
41.552285,943.72,895.22,16.75
41.567912,936.45,887.35,14.88
41.583540,927.76,878.29,14.28
41.599167,922.72,875.13,15.94
41.614794,922.23,861.70,13.98
41.630421,913.30,860.56,14.57
41.646048,908.44,857.28,14.02
41.661675,907.47,845.46,15.02
41.677302,903.52,853.15,10.29
41.692929,904.16,842.80,16.82
41.708556,888.52,839.76,16.08
41.724183,893.72,833.94,14.82
41.739810,892.53,830.70,15.17
41.755437,890.21,829.84,15.75
41.771064,887.70,827.73,15.40
41.786691,882.71,827.66,17.38
41.802318,877.38,824.54,16.06
41.817945,877.44,820.69,13.07
41.833572,879.72,818.92,16.47
41.849199,875.03,818.32,16.87
41.864826,872.51,808.57,19.06
41.880453,873.10,805.94,14.28
41.896080,865.76,798.14,15.75
41.911707,861.90,794.84,19.65
41.927334,864.99,799.88,9.98
41.942961,854.69,790.08,12.97
41.958588,861.36,795.90,14.90
41.974215,860.98,788.99,18.05
41.989842,861.39,791.90,15.10
42.005469,861.96,793.38,14.80
42.021096,860.42,799.24,11.49
42.036724,866.05,806.04,15.62
42.052351,870.94,813.25,15.39
42.067978,883.72,819.33,16.06
42.083605,887.89,835.45,18.86
42.099232,901.66,839.20,17.68
42.114859,907.11,853.51,18.20
42.130486,913.58,862.59,14.02
42.146113,925.75,876.24,17.90
42.161740,935.21,886.38,13.01
42.177367,944.81,897.15,14.05
42.192994,948.88,903.54,15.71
42.208621,951.42,916.53,14.04
42.224248,959.04,919.99,14.06
42.239875,965.55,925.28,15.51
42.255502,958.53,928.57,16.96
42.271129,958.20,924.93,18.04
42.286756,966.68,925.41,14.17
42.302383,959.64,920.33,16.04
42.318010,957.41,914.01,17.01
42.333637,948.41,916.93,15.14
42.349264,951.39,907.06,14.30
42.364891,946.37,898.18,16.65
42.380518,938.19,897.22,16.40
42.396145,929.08,886.79,12.28
42.411772,926.51,878.67,14.32
42.427399,921.08,869.11,14.78
42.443026,915.33,864.41,13.90
42.458653,912.80,856.28,13.04
42.474281,901.05,854.40,13.73
42.489908,900.74,848.24,15.83
42.505535,901.21,846.83,16.08
42.521162,890.10,839.96,18.09
42.536789,895.43,837.03,12.82
42.552416,900.45,833.51,13.11
42.568043,887.03,830.82,15.74
42.583670,892.67,827.20,16.60
42.599297,886.80,826.62,13.05
42.614924,886.34,825.65,14.39
42.630551,879.30,823.60,11.71
42.646178,877.99,816.97,14.59
42.661805,871.81,817.44,13.93
42.677432,868.74,811.03,12.62
42.693059,865.07,808.90,16.06
42.708686,863.66,805.12,14.18
42.724313,862.71,799.57,17.81
42.739940,858.98,794.24,16.07
42.755567,858.23,788.34,15.76
42.771194,858.65,794.51,16.02
42.786821,852.83,791.74,15.87
42.802448,853.58,786.19,15.24
42.818075,856.83,789.76,15.76
42.833702,861.09,792.52,13.94
42.849329,861.93,803.79,15.85
42.864956,862.05,804.45,13.59
42.880583,873.92,817.72,12.81
42.896210,884.35,824.46,17.61
42.911837,889.54,832.85,13.68
42.927465,898.06,842.59,14.39
42.943092,907.65,852.32,18.06
42.958719,919.82,867.27,15.61
42.974346,922.97,878.02,17.94
42.989973,935.20,883.58,12.28
43.005600,934.22,892.43,15.05
43.021227,945.10,905.02,13.66
43.036854,953.51,911.72,13.14
43.052481,955.66,915.66,14.95
43.068108,961.32,924.62,17.68
43.083735,960.26,924.17,18.64
43.099362,959.38,929.04,15.11
43.114989,965.99,922.52,17.87
43.130616,957.08,924.12,15.79
43.146243,951.28,917.87,15.23
43.161870,950.19,915.00,12.22
43.177497,941.45,903.13,18.63
43.193124,940.07,897.94,14.63
43.208751,931.23,890.82,14.71
43.224378,932.00,880.61,13.73
43.240005,922.42,873.82,14.65
43.255632,922.97,870.43,14.97
43.271259,918.82,859.10,16.32
43.286886,912.73,854.07,16.94
43.302513,902.06,852.61,16.94
43.318140,899.20,843.84,15.63
43.333767,894.60,842.37,14.73
43.349394,892.69,838.83,16.84
43.365021,890.04,830.39,13.28
43.380649,894.41,831.71,15.22
43.396276,890.75,832.28,13.22
43.411903,883.94,826.27,17.90
43.427530,882.98,826.50,17.13
43.443157,880.46,826.97,15.69
43.458784,881.34,820.25,17.60
43.474411,875.17,819.46,16.13
43.490038,873.41,819.66,15.56
43.505665,872.91,812.67,13.56
43.521292,872.16,807.80,17.34
43.536919,864.88,801.19,15.30
43.552546,857.63,797.29,12.82
43.568173,852.65,798.95,15.03
43.583800,861.40,792.53,14.75
43.599427,859.83,785.45,15.46
43.615054,851.08,793.75,16.06
43.630681,852.85,786.36,15.17
43.646308,855.84,788.58,14.21
43.661935,854.99,798.59,15.86
43.677562,860.98,803.75,16.17
43.693189,870.37,809.17,12.41
43.708816,871.45,813.09,14.32
43.724443,879.98,823.11,16.22
43.740070,894.87,825.84,18.14
43.755697,895.28,839.77,14.81
43.771324,898.90,848.76,16.19
43.786951,918.55,858.72,15.77
43.802578,927.32,872.27,15.20
43.818205,933.52,885.27,11.09
43.833833,944.12,897.88,14.44
43.849460,939.72,907.26,12.70
43.865087,954.81,911.40,16.88
43.880714,957.77,914.00,13.55
43.896341,954.53,920.87,13.53
43.911968,958.99,919.91,18.02
43.927595,960.16,923.34,14.17
43.943222,957.13,921.38,15.16
43.958849,956.96,914.84,18.52
43.974476,954.89,907.50,18.73
43.990103,949.26,911.69,16.53
44.005730,942.01,903.00,14.45
44.021357,939.21,893.31,12.17
44.036984,939.60,887.45,14.82
44.052611,929.13,881.69,14.99
44.068238,923.28,876.17,13.16
44.083865,920.57,866.02,13.64
44.099492,911.30,860.84,10.55
44.115119,905.75,854.25,14.18
44.130746,896.82,851.29,17.50
44.146373,900.17,843.99,15.91
44.162000,895.63,838.21,20.25
44.177627,892.13,841.89,15.50
44.193254,892.92,836.62,13.84
44.208881,885.61,829.35,16.23
44.224508,888.95,828.03,18.70
44.240135,889.28,824.14,19.52
44.255762,881.98,823.62,12.61
44.271390,879.92,827.07,17.28
44.287017,881.11,824.23,10.06
44.302644,870.74,817.28,13.93
44.318271,870.30,811.21,13.87
44.333898,867.63,809.40,16.27
44.349525,868.45,805.03,13.07
44.365152,861.61,797.61,12.06
44.380779,862.94,792.83,16.91
44.396406,857.06,791.09,14.81
44.412033,855.68,791.25,12.66
44.427660,850.88,787.71,14.75
44.443287,847.99,783.12,15.00
44.458914,848.34,792.89,16.86
44.474541,854.71,785.28,19.22
44.490168,856.08,795.56,13.14
44.505795,858.52,795.93,15.75
44.521422,863.90,804.39,14.87
44.537049,877.58,813.37,15.92
44.552676,883.22,818.92,12.77
44.568303,887.01,832.28,11.48
44.583930,893.68,844.62,15.69
44.599557,908.97,862.42,18.21
44.615184,913.83,862.86,17.72
44.630811,929.26,873.29,12.09
44.646438,928.90,889.40,13.50
44.662065,938.26,891.19,14.15
44.677692,946.94,905.16,18.47
44.693319,949.61,908.42,14.42
44.708946,956.88,918.08,17.41
44.724574,956.59,917.87,17.22
44.740201,965.05,921.92,11.78
44.755828,962.55,920.62,10.14
44.771455,954.14,918.94,10.56
44.787082,952.76,914.36,15.89
44.802709,958.30,907.73,12.89
44.818336,951.66,902.77,10.64
44.833963,943.75,903.64,15.41
44.849590,939.83,890.09,17.32
44.865217,931.74,885.42,17.20
44.880844,926.15,875.02,14.74
44.896471,924.61,871.88,16.67
44.912098,913.78,871.40,13.25
44.927725,908.94,858.15,15.37
44.943352,907.48,859.47,16.06
44.958979,894.34,849.04,14.65
44.974606,898.03,837.56,12.05
44.990233,895.21,846.01,13.09
45.005860,887.89,839.72,18.12
45.021487,889.23,838.34,18.29
45.037114,885.06,828.79,15.54
45.052741,888.07,834.31,20.67
45.068368,882.06,829.35,15.83
45.083995,883.65,825.81,21.93
45.099622,875.90,820.21,15.18
45.115249,874.18,806.35,17.67
45.130876,871.71,813.66,17.08
45.146503,872.34,808.06,12.87
45.162130,860.70,810.35,15.94
45.177758,859.46,802.13,15.61
45.193385,853.96,793.04,14.61
45.209012,858.93,795.22,16.61
45.224639,850.03,788.23,13.98
45.240266,851.26,784.82,14.66
45.255893,849.48,787.58,16.85
45.271520,851.51,778.07,14.04
45.287147,851.15,784.89,15.70
45.302774,853.92,786.34,14.37
45.318401,858.10,800.47,14.68
45.334028,857.71,798.43,14.09
45.349655,870.68,807.26,13.48
45.365282,875.87,813.58,13.60
45.380909,875.77,819.39,12.72
45.396536,889.84,826.41,15.16
45.412163,897.03,847.07,18.08
45.427790,901.74,850.64,16.27
45.443417,910.74,864.16,12.28
45.459044,921.75,880.90,16.46
45.474671,930.38,890.70,12.73
45.490298,942.86,897.41,14.64
45.505925,942.29,902.72,15.61
45.521552,955.24,912.18,14.29
45.537179,953.28,919.51,14.27
45.552806,951.42,916.89,12.63
45.568433,953.62,922.16,15.95
45.584060,954.50,915.93,13.21
45.599687,960.09,912.98,13.91
45.615314,950.40,912.09,16.38
45.630942,947.14,911.41,18.18
45.646569,944.19,906.23,13.96
45.662196,933.82,896.24,14.39
45.677823,928.77,885.72,14.24
45.693450,926.54,884.86,17.99
45.709077,921.24,882.68,12.87
45.724704,918.39,862.26,13.52
45.740331,909.44,861.52,15.76
45.755958,909.27,853.81,17.23
45.771585,898.17,850.26,12.24
45.787212,895.21,845.98,17.92
45.802839,895.80,837.89,11.41
45.818466,888.83,838.63,14.59
45.834093,888.75,836.74,16.24
45.849720,881.24,831.59,13.38
45.865347,888.46,823.20,15.61
45.880974,880.73,828.53,13.11
45.896601,881.19,820.35,15.31
45.912228,876.59,818.39,13.42
45.927855,876.00,817.00,14.33
45.943482,876.68,814.30,17.23
45.959109,869.37,808.62,14.72
45.974736,870.38,804.98,11.39
45.990363,863.37,805.87,14.67
46.005990,853.02,799.41,13.27
46.021617,859.87,795.49,14.82
46.037244,855.23,792.25,17.28
46.052871,852.57,783.32,17.29
46.068499,850.95,781.93,12.67
46.084126,848.03,781.46,13.70
46.099753,853.41,783.35,17.87
46.115380,845.98,787.25,15.70
46.131007,856.21,790.64,14.29
46.146634,853.16,792.23,13.14
46.162261,865.32,798.18,17.25
46.177888,867.71,814.17,13.42
46.193515,873.17,818.55,15.16
46.209142,883.03,826.12,15.51
46.224769,888.04,833.85,15.34
46.240396,901.83,844.90,14.00
46.256023,902.78,859.87,17.93
46.271650,917.23,870.76,17.73
46.287277,926.05,879.77,15.95
46.302904,931.81,889.47,16.56
46.318531,935.91,900.45,14.94
46.334158,945.99,903.32,13.10
46.349785,947.04,911.22,13.95
46.365412,952.25,915.59,11.54
46.381039,955.98,915.96,12.33
46.396666,957.63,918.53,15.53
46.412293,951.23,916.97,15.97
46.427920,950.67,919.24,14.51
46.443547,945.09,916.52,16.38
46.459174,940.96,905.92,14.37
46.474801,940.02,896.42,14.52
46.490428,933.84,890.20,16.87
46.506055,930.18,889.49,16.08
46.521683,920.06,876.54,14.56
46.537310,910.03,867.33,12.27
46.552937,913.16,864.05,15.88
46.568564,914.65,857.55,16.05
46.584191,902.82,855.27,14.26
46.599818,896.56,846.46,17.99
46.615445,888.80,846.80,16.37
46.631072,892.37,844.91,14.47
46.646699,886.29,835.55,15.43
46.662326,882.25,835.01,11.14
46.677953,884.78,824.81,18.74
46.693580,877.21,827.35,16.40
46.709207,884.06,823.30,17.61
46.724834,879.39,826.43,14.71
46.740461,874.70,820.77,14.85
46.756088,877.00,815.11,13.30
46.771715,870.42,811.53,15.06
46.787342,860.34,807.95,11.87
46.802969,862.55,802.74,13.33
46.818596,862.51,800.61,16.29
46.834223,859.68,793.56,15.92
46.849850,860.94,786.18,14.50
46.865477,854.91,787.46,14.78
46.881104,852.22,790.19,12.03
46.896731,845.99,786.08,19.12
46.912358,848.16,783.33,19.39
46.927985,846.84,783.57,17.32
46.943612,851.18,786.53,14.54
46.959239,849.29,792.01,12.49
46.974867,855.81,796.54,17.93
46.990494,855.37,797.19,12.68
47.006121,863.79,806.93,14.56
47.021748,868.22,815.53,16.02
47.037375,880.87,822.65,14.34
47.053002,886.91,838.67,15.40
47.068629,901.75,844.97,19.53
47.084256,907.00,863.54,14.77
47.099883,917.76,869.24,14.86
47.115510,928.30,876.61,19.35
47.131137,934.68,893.13,11.17
47.146764,938.29,899.17,18.46
47.162391,945.81,910.71,13.04
47.178018,945.25,906.81,17.92
47.193645,954.69,909.92,17.30
47.209272,954.23,916.28,15.04
47.224899,950.81,922.18,12.54
47.240526,954.90,916.76,15.42
47.256153,949.71,918.31,17.49
47.271780,954.22,909.18,10.67
47.287407,944.36,905.90,17.58
47.303034,933.64,898.46,14.99
47.318661,934.72,890.07,10.57
47.334288,929.00,883.18,13.81
47.349915,920.29,879.50,14.62
47.365542,912.57,870.43,17.50
47.381169,907.05,855.96,13.60
47.396796,907.63,855.39,11.94
47.412423,898.45,843.19,13.60
47.428051,895.79,838.97,16.42
47.443678,888.51,843.43,18.66
47.459305,885.58,836.98,16.89
47.474932,889.79,837.91,18.01
47.490559,880.51,827.77,13.76
47.506186,879.35,830.33,14.02
47.521813,881.72,824.02,15.34
47.537440,876.63,827.17,15.82
47.553067,876.04,818.34,14.62
47.568694,874.62,821.03,20.49
47.584321,872.29,814.58,12.21
47.599948,861.93,813.38,14.46
47.615575,865.77,809.60,17.39
47.631202,863.17,801.93,14.65
47.646829,860.97,797.97,16.52
47.662456,855.15,794.53,14.59
47.678083,852.27,787.36,11.81
47.693710,848.20,787.36,16.21
47.709337,841.50,781.20,11.98
47.724964,846.47,784.12,17.22
47.740591,842.15,785.69,17.80
47.756218,851.33,787.71,17.11
47.771845,850.07,786.13,15.58
47.787472,853.73,787.55,13.82
47.803099,855.53,794.04,10.81
47.818726,862.35,802.28,16.05
47.834353,867.45,813.36,14.00
47.849980,877.33,819.09,15.61
47.865608,887.97,823.36,15.34
47.881235,890.74,843.11,16.74
47.896862,897.89,850.77,14.49
47.912489,912.64,858.25,16.88
47.928116,914.81,871.38,16.21
47.943743,923.93,881.86,12.76
47.959370,935.43,897.16,13.32
47.974997,944.92,901.85,16.53
47.990624,945.84,912.21,14.31
48.006251,953.30,916.25,18.18
48.021878,951.86,911.65,14.11
48.037505,947.24,919.52,14.21
48.053132,950.09,915.63,14.91
48.068759,947.28,916.07,16.63
48.084386,952.22,912.68,13.42
48.100013,943.58,908.62,15.37
48.115640,943.63,902.09,17.69
48.131267,926.57,894.65,14.60
48.146894,924.54,887.99,11.22
48.162521,923.57,875.90,16.09
48.178148,915.39,869.27,14.15
48.193775,920.14,860.59,13.93
48.209402,906.56,856.50,13.27
48.225029,897.35,850.20,16.86
48.240656,896.97,845.23,13.82
48.256283,890.88,841.84,13.38
48.271910,887.91,833.82,13.04
48.287537,885.47,840.22,11.48
48.303164,888.94,828.60,14.08
48.318792,885.62,830.41,16.49
48.334419,881.13,826.00,14.04
48.350046,879.26,825.32,14.64
48.365673,875.44,825.28,15.46
48.381300,870.92,819.56,13.58
48.396927,869.14,813.73,12.67
48.412554,866.90,809.81,12.50
48.428181,866.10,807.48,15.03
48.443808,863.59,803.81,13.56
48.459435,862.74,792.87,15.25
48.475062,855.23,792.36,17.20
48.490689,856.67,792.97,16.32
48.506316,848.33,788.13,16.61
48.521943,839.98,779.56,16.30
48.537570,841.43,782.44,17.48
48.553197,844.20,782.83,15.10
48.568824,844.60,779.66,16.05
48.584451,850.92,781.10,14.89
48.600078,844.01,791.09,13.93
48.615705,853.76,786.90,12.27
48.631332,856.24,799.62,15.69
48.646959,865.74,801.90,15.58
48.662586,870.41,815.78,15.70
48.678213,876.18,815.07,17.71
48.693840,889.96,833.12,19.03
48.709467,891.70,842.85,13.52
48.725094,898.97,856.12,12.86
48.740721,911.68,864.08,18.35
48.756348,920.55,876.86,13.81
48.771976,931.37,884.31,18.28
48.787603,936.01,892.20,13.22
48.803230,942.04,903.50,13.40
48.818857,945.06,904.24,15.60
48.834484,951.37,913.70,13.92
48.850111,945.44,915.53,12.30
48.865738,958.77,910.60,17.05
48.881365,948.89,910.04,13.28
48.896992,949.71,911.92,15.08
48.912619,947.62,910.44,19.21
48.928246,936.24,903.59,12.73
48.943873,927.77,898.01,13.21
48.959500,926.77,893.76,12.57
48.975127,924.76,887.09,14.77
48.990754,911.39,875.12,15.57
49.006381,908.56,867.25,14.40
49.022008,910.39,860.36,11.78
49.037635,903.75,854.06,14.46
49.053262,896.92,849.63,12.82
49.068889,894.46,847.67,14.73
49.084516,888.60,838.76,13.89
49.100143,887.28,834.81,11.94
49.115770,884.25,830.33,10.71
49.131397,881.90,835.30,15.60
49.147024,875.34,822.85,11.60
49.162651,874.49,825.97,14.82
49.178278,877.07,823.39,12.49
49.193905,875.18,817.90,13.81
49.209532,877.87,817.32,15.51
49.225160,873.65,807.64,12.66
49.240787,860.34,812.13,16.92
49.256414,867.05,803.64,9.74
49.272041,858.98,803.32,14.33
49.287668,855.68,794.75,14.66
49.303295,854.16,792.65,15.84
49.318922,854.60,787.62,10.67
49.334549,846.69,783.75,14.01
49.350176,848.33,779.92,14.78
49.365803,834.62,783.99,12.91
49.381430,847.09,778.51,17.89
49.397057,838.85,779.31,14.59
49.412684,844.49,787.04,12.59
49.428311,850.66,789.50,15.22
49.443938,850.61,791.26,17.09
49.459565,863.45,803.11,18.37
49.475192,863.12,806.36,12.83
49.490819,871.70,817.01,16.98
49.506446,878.55,827.86,14.04
49.522073,886.61,840.67,18.85
49.537700,902.60,853.37,13.96
49.553327,912.92,859.59,14.42
49.568954,909.85,868.11,13.85
49.584581,925.39,884.89,15.41
49.600208,929.52,892.07,17.65
49.615835,935.45,896.17,15.59
49.631462,946.39,910.68,17.70
49.647089,947.92,912.96,17.34
49.662716,950.56,919.92,12.98
49.678344,951.22,913.04,14.21
49.693971,950.39,914.93,14.28
49.709598,948.27,906.91,10.59
49.725225,942.78,908.35,13.48
49.740852,946.73,900.02,14.90
49.756479,927.60,902.45,14.22
49.772106,926.58,888.70,17.71
49.787733,928.97,883.67,16.87
49.803360,917.80,875.74,17.62
49.818987,917.70,865.83,17.50
49.834614,905.16,862.60,11.85
49.850241,899.29,861.23,16.96
49.865868,893.05,849.79,14.86
49.881495,896.63,850.05,13.75
49.897122,894.68,838.25,11.30
49.912749,887.01,839.26,14.07
49.928376,880.56,829.69,14.59
49.944003,882.95,831.18,13.87
49.959630,873.08,831.83,13.19
49.975257,879.43,821.80,17.75
49.990884,873.01,824.24,13.77
50.006511,875.19,822.47,11.69
50.022138,870.98,818.94,14.24
50.037765,866.13,815.11,13.88
50.053392,864.09,814.04,10.51
50.069019,863.48,803.20,15.23
50.084646,854.83,804.56,17.85
50.100273,853.29,797.03,10.75
50.115901,846.09,798.20,16.94
50.131528,850.13,785.04,12.77
50.147155,850.84,789.79,17.30
50.162782,842.26,782.94,15.28
50.178409,842.43,784.89,19.56
50.194036,843.91,786.07,11.57
50.209663,844.07,780.56,15.84
50.225290,843.43,778.83,14.93
50.240917,845.60,786.10,15.62
50.256544,848.32,789.32,13.84
50.272171,854.77,795.94,11.16
50.287798,860.35,807.53,15.95
50.303425,867.35,816.12,15.01
50.319052,879.14,815.62,13.61
50.334679,887.08,834.66,14.97
50.350306,901.45,841.30,14.87
50.365933,901.59,855.79,17.91
50.381560,908.36,865.92,16.41
50.397187,917.56,879.90,11.28
50.412814,924.76,888.21,15.84
50.428441,934.09,898.72,15.02
50.444068,940.92,901.81,16.33
50.459695,946.47,906.86,15.99
50.475322,948.67,917.73,19.58
50.490949,949.94,910.61,20.26
50.506576,953.53,915.60,16.89
50.522203,947.95,913.23,15.46
50.537830,947.76,907.66,17.49
50.553457,937.17,910.54,12.18
50.569085,937.42,903.51,15.21
50.584712,934.93,902.50,18.08
50.600339,926.66,891.44,14.45
50.615966,920.36,883.29,16.75
50.631593,916.44,873.24,15.48
50.647220,908.88,859.12,15.91
50.662847,907.83,858.78,14.69
50.678474,895.76,854.16,13.63
50.694101,894.73,851.94,14.44
50.709728,895.06,836.61,15.37
50.725355,883.95,840.69,14.06
50.740982,881.01,827.90,14.12
50.756609,881.62,827.71,14.80
50.772236,879.39,824.69,15.87
50.787863,874.52,828.83,16.03
50.803490,875.99,823.47,18.40
50.819117,871.76,817.41,15.99
50.834744,870.41,815.64,14.73
50.850371,868.15,813.93,13.54
50.865998,861.21,812.00,14.26
50.881625,866.12,808.48,15.11
50.897252,858.76,809.10,15.85
50.912879,856.71,802.02,14.42
50.928506,855.28,803.77,15.30
50.944133,847.90,791.44,13.13
50.959760,851.09,786.92,10.19
50.975387,847.45,784.08,15.92
50.991014,837.92,781.90,17.27
51.006641,843.78,783.89,18.84
51.022269,834.50,779.45,13.09
51.037896,838.49,781.34,14.71
51.053523,844.65,786.16,16.44
51.069150,848.64,785.97,14.60
51.084777,854.62,798.08,14.57
51.100404,855.48,803.56,16.39
51.116031,861.65,810.92,12.79
51.131658,873.24,824.91,15.74
51.147285,875.78,828.75,12.28
51.162912,886.70,844.85,9.24
51.178539,902.62,849.20,12.60
51.194166,909.76,863.84,16.81
51.209793,914.30,873.47,16.71
51.225420,926.76,886.73,12.67
51.241047,930.83,893.88,16.30
51.256674,934.49,898.74,13.02
51.272301,946.20,908.26,13.79
51.287928,945.23,909.79,15.04
51.303555,952.64,910.08,14.80
51.319182,945.92,914.42,12.32
51.334809,948.07,914.81,13.76
51.350436,939.78,912.97,14.82
51.366063,938.84,904.35,14.23
51.381690,934.95,900.40,15.20
51.397317,932.38,896.57,12.14
51.412944,930.31,887.49,16.96
51.428571,925.07,880.01,12.93
51.444198,919.26,877.20,14.18
51.459825,911.61,870.21,14.83
51.475453,902.17,866.44,13.47
51.491080,901.57,855.39,17.51
51.506707,895.73,851.64,14.64
51.522334,891.10,844.69,14.72
51.537961,885.55,836.27,13.19
51.553588,893.46,830.88,12.67
51.569215,884.72,832.20,14.99
51.584842,875.64,828.89,16.02
51.600469,879.69,830.01,13.49
51.616096,876.91,822.87,15.71
51.631723,874.89,819.71,17.30
51.647350,869.11,818.26,15.96
51.662977,866.99,817.85,16.12
51.678604,860.52,818.20,13.46
51.694231,865.66,806.12,12.38
51.709858,859.95,800.04,16.38
51.725485,857.49,800.59,15.58
51.741112,857.34,795.55,15.59
51.756739,850.25,798.54,11.16
51.772366,849.89,788.63,16.20
51.787993,840.34,786.15,16.78
51.803620,845.04,789.40,13.41
51.819247,837.80,775.13,15.14
51.834874,841.53,780.64,11.99
51.850501,841.91,782.33,11.49
51.866128,843.17,783.21,13.12
51.881755,851.86,788.00,15.73
51.897382,849.75,790.88,13.72
51.913010,854.09,797.44,12.39
51.928637,861.01,806.70,18.95
51.944264,873.96,819.52,14.20
51.959891,877.45,828.77,14.25
51.975518,886.67,840.79,15.07
51.991145,897.31,847.72,15.32
52.006772,909.20,856.59,14.30
52.022399,910.37,874.17,14.78
52.038026,920.22,878.66,16.12
52.053653,927.60,890.52,13.45
52.069280,931.57,895.51,14.64
52.084907,942.49,905.59,13.95
52.100534,944.13,915.89,14.96
52.116161,950.98,913.04,14.45
52.131788,948.17,915.09,15.50
52.147415,948.98,914.69,15.79
52.163042,942.54,911.41,13.88
52.178669,950.17,910.70,14.80
52.194296,942.23,909.16,19.44
52.209923,938.42,904.09,13.31
52.225550,932.68,895.95,15.80
52.241177,926.47,884.44,15.85
52.256804,926.67,879.35,13.46
52.272431,919.54,868.98,15.72
52.288058,909.33,866.59,13.93
52.303685,901.45,864.26,13.34
52.319312,898.10,849.38,12.12
52.334939,894.86,844.10,17.61
52.350566,888.68,840.30,11.70
52.366194,881.43,837.61,14.42
52.381821,880.93,834.29,12.87
52.397448,878.34,835.61,16.82
52.413075,880.37,827.08,14.18
52.428702,869.29,822.33,14.25
52.444329,870.21,823.03,15.82
52.459956,872.47,823.64,17.14
52.475583,875.65,816.50,17.23
52.491210,860.27,815.51,14.40
52.506837,870.02,811.71,12.98
52.522464,866.13,808.99,16.02
52.538091,857.42,804.84,14.78
52.553718,851.05,795.84,14.27
52.569345,848.64,795.57,12.61
52.584972,851.78,786.65,18.10
52.600599,846.42,784.91,15.13
52.616226,840.79,783.56,12.69
52.631853,845.67,777.85,15.21
52.647480,834.21,780.93,13.62
52.663107,844.42,776.00,18.62
52.678734,842.34,791.46,16.42
52.694361,841.71,788.52,14.40
52.709988,849.97,790.34,15.03
52.725615,851.56,792.41,15.08
52.741242,857.51,805.05,17.06
52.756869,862.37,812.43,17.24
52.772496,874.69,821.12,14.12
52.788123,880.98,836.72,17.23
52.803750,889.64,841.94,14.36
52.819378,900.25,853.50,14.78
52.835005,912.18,865.39,13.34
52.850632,916.06,881.55,12.78
52.866259,930.03,884.29,14.48
52.881886,927.78,895.32,16.52
52.897513,938.46,905.02,16.35
52.913140,943.54,907.14,19.49
52.928767,947.94,914.15,17.97
52.944394,948.57,920.23,12.77
52.960021,952.08,920.92,11.02
52.975648,947.73,912.68,15.72
52.991275,944.00,910.11,13.37
53.006902,942.80,914.02,16.92
53.022529,938.18,899.83,14.48
53.038156,938.37,902.75,10.70
53.053783,931.51,891.27,13.67
53.069410,923.36,881.67,14.41
53.085037,921.13,878.01,12.64
53.100664,906.12,865.54,16.04
53.116291,902.02,864.05,13.54
53.131918,898.81,856.15,14.98
53.147545,895.65,847.34,16.25
53.163172,895.37,841.97,14.80
53.178799,892.13,834.81,15.59
53.194426,887.58,835.81,14.02
53.210053,881.64,837.24,14.08
53.225680,880.13,830.75,16.85
53.241307,876.01,824.09,13.56
53.256934,870.23,826.65,17.16
53.272562,868.65,827.70,15.14
53.288189,872.87,823.92,10.91
53.303816,864.13,813.45,17.01
53.319443,867.85,807.47,15.76
53.335070,867.43,806.20,12.70
53.350697,858.93,805.82,15.47
53.366324,858.23,803.30,14.76
53.381951,858.49,796.33,17.58
53.397578,851.35,794.38,13.73
53.413205,845.56,792.80,10.90
53.428832,843.13,784.55,13.73
53.444459,842.76,781.58,16.17
53.460086,840.85,781.26,13.90
53.475713,848.60,777.04,12.15
53.491340,842.29,783.52,9.91
53.506967,842.04,782.33,14.70
53.522594,844.46,789.23,17.34
53.538221,846.15,792.95,15.23
53.553848,857.43,798.35,12.82
53.569475,858.71,805.76,13.51
53.585102,867.21,817.36,17.67
53.600729,876.18,826.73,14.00
53.616356,882.75,842.37,13.93
53.631983,901.53,842.46,15.24
53.647610,904.56,861.98,11.65
53.663237,912.41,874.73,11.57
53.678864,920.84,880.18,15.63
53.694491,932.26,887.28,13.74
53.710119,938.11,900.82,14.45
53.725746,939.85,907.75,17.35
53.741373,945.88,909.48,12.87
53.757000,948.95,917.78,12.68
53.772627,950.77,922.88,13.81
53.788254,945.79,914.71,16.35
53.803881,949.60,921.81,16.82
53.819508,938.92,909.55,12.36
53.835135,938.77,908.63,18.81
53.850762,938.10,902.43,16.22
53.866389,929.83,893.62,16.27
53.882016,927.74,888.69,12.43
53.897643,918.22,882.97,15.74
53.913270,913.16,873.53,16.72
53.928897,907.40,867.06,15.44
53.944524,907.22,859.34,14.14
53.960151,896.90,849.43,16.31
53.975778,894.72,846.82,15.21
53.991405,892.80,842.13,17.86
54.007032,887.72,840.67,14.13
54.022659,882.93,836.35,15.65
54.038286,881.92,835.27,12.36
54.053913,876.40,832.54,13.62
54.069540,875.10,823.16,15.51
54.085167,872.96,822.40,10.92
54.100794,869.83,822.60,15.12
54.116421,872.33,817.18,13.64
54.132048,872.08,812.50,12.30
54.147675,862.58,812.69,14.50
54.163303,859.38,803.74,13.19
54.178930,854.31,797.51,13.28
54.194557,856.96,798.70,17.37
54.210184,851.90,795.12,13.37
54.225811,852.53,793.71,16.96
54.241438,849.01,788.24,14.81
54.257065,841.42,786.03,16.51
54.272692,844.10,783.77,15.94
54.288319,838.14,780.61,17.99
54.303946,842.04,784.60,16.04
54.319573,839.74,786.71,19.92
54.335200,844.77,786.15,15.41
54.350827,848.41,791.14,12.98
54.366454,849.83,801.08,9.98
54.382081,862.84,803.81,17.93
54.397708,869.10,815.31,16.87
54.413335,878.97,827.99,13.22
54.428962,885.52,829.74,13.69
54.444589,889.45,845.47,16.26
54.460216,899.73,860.88,13.77
54.475843,913.63,861.36,12.98
54.491470,918.21,880.53,15.85
54.507097,923.37,887.46,14.40
54.522724,933.61,905.62,15.65
54.538351,941.34,906.91,16.45
54.553978,942.74,909.20,13.98
54.569605,949.49,912.35,19.18
54.585232,948.40,913.03,15.83
54.600859,947.77,919.23,17.02
54.616487,952.27,914.39,13.91
54.632114,946.31,913.52,14.89
54.647741,939.47,909.21,14.57
54.663368,938.80,902.52,20.85
54.678995,936.17,896.70,11.01
54.694622,923.56,896.48,12.87
54.710249,921.59,885.91,16.43
54.725876,918.97,875.36,16.47
54.741503,910.95,865.37,14.31
54.757130,902.99,868.81,17.44
54.772757,899.84,850.47,13.46
54.788384,897.28,851.91,14.43
54.804011,891.65,848.37,14.45
54.819638,889.31,837.81,13.94
54.835265,884.80,841.10,13.33
54.850892,877.65,827.90,12.98
54.866519,877.94,829.94,11.64
54.882146,882.24,825.74,16.96
54.897773,869.99,823.54,14.55
54.913400,878.39,824.15,17.99
54.929027,873.13,816.69,16.23
54.944654,866.72,816.03,15.68
54.960281,870.60,814.90,17.69
54.975908,870.02,808.97,16.20
54.991535,863.95,806.55,17.02
55.007162,855.04,807.27,16.76
55.022789,854.53,796.71,16.20
55.038416,858.26,795.66,13.96
55.054043,845.67,793.00,13.01
55.069671,849.59,792.32,19.49
55.085298,843.79,780.30,11.88
55.100925,846.57,787.52,16.80
55.116552,843.48,780.75,15.20
55.132179,845.21,780.80,14.98
55.147806,848.15,785.62,16.59
55.163433,847.25,790.73,15.72
55.179060,844.84,796.80,14.64
55.194687,860.75,801.54,15.09
55.210314,869.33,805.17,13.65
55.225941,870.78,823.71,14.73
55.241568,884.55,840.84,17.46
55.257195,889.92,841.06,16.57
55.272822,897.20,851.43,15.42
55.288449,908.97,865.89,18.71
55.304076,917.26,881.32,18.61
55.319703,921.88,889.98,14.35
55.335330,937.84,898.58,12.34
55.350957,935.51,906.47,13.90
55.366584,944.76,911.23,18.16
55.382211,948.89,917.02,14.40
55.397838,950.67,914.60,17.63
55.413465,954.71,923.13,18.51
55.429092,946.76,912.41,14.40
55.444719,948.87,912.10,16.66
55.460346,944.66,906.10,14.71
55.475973,939.77,907.51,15.66
55.491600,935.76,900.59,13.04
55.507228,928.64,891.63,13.63
55.522855,921.55,883.57,11.49
55.538482,920.73,880.92,16.05
55.554109,910.82,873.11,10.78
55.569736,905.88,865.30,14.45
55.585363,905.71,859.04,16.67
55.600990,895.16,848.33,15.53
55.616617,896.03,841.73,16.00
55.632244,889.16,846.31,16.44
55.647871,885.80,839.98,14.11
55.663498,884.53,836.76,14.97
55.679125,881.16,830.71,16.78
55.694752,880.99,826.70,16.82
55.710379,878.06,834.00,15.96
55.726006,870.92,821.45,14.88
55.741633,870.02,824.71,16.19
55.757260,874.51,820.29,12.39
55.772887,870.23,813.53,17.73
55.788514,863.88,812.15,15.31
55.804141,862.22,803.35,17.01
55.819768,862.98,803.81,16.61
55.835395,851.42,794.92,17.86
55.851022,852.88,798.86,16.46
55.866649,849.95,792.53,15.01
55.882276,847.07,789.86,15.44
55.897903,850.14,785.83,14.73
55.913530,841.29,783.26,16.46
55.929157,842.89,781.09,14.76
55.944784,842.25,787.04,19.04
55.960412,848.01,784.59,13.64
55.976039,847.75,800.92,16.33
55.991666,851.23,796.65,12.90
56.007293,863.39,806.68,13.70
56.022920,865.70,813.84,11.68
56.038547,871.60,823.49,15.96
56.054174,882.75,828.85,13.27
56.069801,893.42,842.29,14.25
56.085428,902.62,848.78,15.78
56.101055,907.03,866.47,11.45
56.116682,918.41,876.15,14.54
56.132309,929.85,889.33,9.09
56.147936,929.09,899.64,14.20
56.163563,940.20,900.16,11.78
56.179190,942.80,906.29,13.93
56.194817,950.81,912.26,14.68
56.210444,949.69,915.44,13.95
56.226071,944.64,921.89,15.36
56.241698,951.05,921.61,15.19
56.257325,944.22,918.51,14.18
56.272952,947.62,915.95,12.68
56.288579,938.62,909.62,12.43
56.304206,938.68,900.66,14.27
56.319833,930.49,892.63,16.63
56.335460,931.55,882.30,16.99
56.351087,915.11,883.64,16.34
56.366714,916.00,877.90,11.68
56.382341,906.61,863.21,14.80
56.397968,908.93,860.31,14.48
56.413596,900.85,859.74,15.18
56.429223,893.47,846.68,13.33
56.444850,893.87,840.48,14.38
56.460477,886.79,835.92,17.88
56.476104,888.74,834.89,16.41
56.491731,882.03,833.78,11.96
56.507358,881.54,831.21,18.91
56.522985,881.61,834.27,18.52
56.538612,875.08,825.61,15.71
56.554239,875.43,822.73,16.96
56.569866,871.43,814.77,12.24
56.585493,868.40,822.07,16.46
56.601120,867.88,810.16,16.77
56.616747,864.43,812.81,15.63
56.632374,865.48,806.56,14.25
56.648001,857.82,799.45,18.70
56.663628,860.89,800.19,14.06
56.679255,851.15,788.52,18.54
56.694882,849.97,793.11,11.88
56.710509,845.35,786.31,13.97
56.726136,847.29,785.11,16.69
56.741763,846.02,782.53,12.94
56.757390,848.74,781.78,15.26
56.773017,846.94,784.39,13.64
56.788644,852.13,792.36,12.33
56.804271,856.42,796.47,16.45
56.819898,857.31,802.79,17.72
56.835525,867.46,811.57,14.67
56.851152,868.87,818.72,15.17
56.866780,882.27,831.22,16.78
56.882407,883.45,839.47,17.77
56.898034,894.42,854.02,13.85
56.913661,912.33,859.39,15.59
56.929288,914.89,873.15,14.49
56.944915,922.55,884.06,12.94
56.960542,928.80,890.86,18.46
56.976169,937.34,902.81,17.19
56.991796,945.40,911.27,13.97
57.007423,944.25,916.22,15.88
57.023050,956.90,921.39,14.50
57.038677,951.59,916.93,14.97
57.054304,948.78,918.92,14.45
57.069931,951.81,921.47,17.69
57.085558,947.59,918.83,12.78
57.101185,941.25,919.64,13.84
57.116812,939.13,907.10,15.31
57.132439,938.54,900.64,13.66
57.148066,928.79,895.21,17.68
57.163693,924.49,889.91,13.59
57.179320,921.43,879.30,15.53
57.194947,916.46,874.10,14.44
57.210574,899.20,864.24,13.37
57.226201,901.88,860.85,18.64
57.241828,899.05,848.52,16.82
57.257455,897.21,846.26,13.26
57.273082,887.20,839.89,17.70
57.288709,886.86,841.98,14.66
57.304337,882.96,836.76,13.07
57.319964,885.37,836.05,14.98
57.335591,889.31,828.60,12.59
57.351218,878.26,827.89,15.59
57.366845,883.79,828.94,15.74
57.382472,872.64,826.79,15.85
57.398099,869.70,820.68,14.57
57.413726,867.68,820.38,14.85
57.429353,868.36,814.21,14.70
57.444980,864.25,809.11,11.96
57.460607,861.55,806.92,16.16
57.476234,856.77,807.55,16.60
57.491861,854.16,796.29,16.09
57.507488,849.60,794.02,14.42
57.523115,849.88,790.65,13.46
57.538742,843.47,791.80,12.24
57.554369,847.27,788.21,15.75
57.569996,846.09,788.95,14.87
57.585623,848.04,787.36,11.24
57.601250,846.30,787.87,15.60
57.616877,850.90,791.22,13.81
57.632504,856.67,800.31,16.92
57.648131,859.54,810.21,14.44
57.663758,867.62,817.95,14.43
57.679385,883.50,823.79,16.06
57.695012,887.64,837.87,20.87
57.710639,894.14,849.33,17.92
57.726266,907.81,853.85,16.64
57.741893,913.12,870.03,15.57
57.757521,921.30,880.38,19.02
57.773148,932.51,896.32,13.83
57.788775,935.04,901.04,16.28
57.804402,944.89,908.42,17.09
57.820029,946.46,914.77,14.33
57.835656,946.88,920.06,15.96
57.851283,953.58,924.99,16.37
57.866910,950.09,919.64,16.11
57.882537,952.00,920.09,14.41
57.898164,947.76,919.69,11.98
57.913791,947.79,919.67,14.45
57.929418,945.96,904.52,12.64
57.945045,939.53,903.06,16.67
57.960672,930.95,897.73,16.01
57.976299,930.40,892.31,13.69
57.991926,919.42,880.04,12.35
58.007553,919.22,878.36,13.98
58.023180,908.52,871.27,13.39
58.038807,904.10,861.88,19.07
58.054434,903.97,853.77,14.25
58.070061,895.43,853.68,13.61
58.085688,890.85,846.05,14.03
58.101315,891.40,843.99,20.08
58.116942,892.25,841.34,14.87
58.132569,886.34,836.61,18.66
58.148196,884.98,833.18,14.34
58.163823,885.56,835.19,14.31
58.179450,880.83,829.96,13.60
58.195077,876.12,829.56,15.69
58.210705,879.32,825.22,15.83
58.226332,875.41,825.43,16.26
58.241959,875.02,814.56,15.58
58.257586,864.26,812.33,16.70
58.273213,862.34,804.02,16.27
58.288840,857.01,810.84,18.30
58.304467,858.05,796.30,13.60
58.320094,856.07,794.39,16.71
58.335721,855.28,795.05,15.21
58.351348,846.48,790.16,12.41
58.366975,858.79,790.63,16.02
58.382602,848.47,789.40,14.60
58.398229,849.12,782.35,13.42
58.413856,847.69,789.58,12.62
58.429483,851.02,792.75,17.47
58.445110,855.70,796.50,12.09
58.460737,866.74,808.65,16.91
58.476364,872.11,814.51,18.53
58.491991,873.75,825.41,14.63
58.507618,890.32,837.43,13.33
58.523245,893.91,840.62,15.75
58.538872,902.64,854.85,13.74
58.554499,911.83,869.33,13.97
58.570126,918.59,873.77,14.65
58.585753,927.65,885.89,15.62
58.601380,939.13,892.34,14.76
58.617007,938.62,907.21,20.13
58.632634,946.61,913.34,15.14
58.648261,955.54,914.71,14.37
58.663889,956.69,916.30,18.14
58.679516,955.49,921.85,14.17
58.695143,955.44,920.52,18.39
58.710770,955.04,919.49,17.15
58.726397,953.87,913.90,16.59
58.742024,951.74,910.19,16.38
58.757651,943.91,908.67,14.83
58.773278,939.08,905.19,14.35
58.788905,931.21,890.74,15.59
58.804532,926.89,888.08,11.86
58.820159,924.42,882.84,13.20
58.835786,921.39,869.38,14.00
58.851413,910.50,864.42,15.01
58.867040,906.96,861.59,17.23
58.882667,899.70,856.09,16.30
58.898294,897.28,849.68,16.76
58.913921,893.02,843.28,15.53
58.929548,887.30,844.64,17.94
58.945175,885.62,834.18,15.55
58.960802,886.65,839.22,15.60
58.976429,888.83,834.66,15.38
58.992056,880.40,830.30,16.10
59.007683,881.86,829.96,12.01
59.023310,874.19,823.27,14.33
59.038937,879.07,821.75,20.92
59.054564,871.04,820.86,14.13
59.070191,868.42,814.16,13.85
59.085818,869.35,811.13,18.99
59.101446,861.83,810.35,16.85
59.117073,864.97,797.02,14.45
59.132700,854.75,797.52,13.40
59.148327,856.71,797.86,13.97
59.163954,853.53,786.90,12.84
59.179581,851.39,789.79,13.19
59.195208,846.66,789.31,15.51
59.210835,853.62,790.37,15.43
59.226462,850.92,788.45,15.94
59.242089,854.06,794.60,18.07
59.257716,861.64,795.45,15.27
59.273343,858.36,806.66,14.69
59.288970,862.52,809.04,16.21
59.304597,871.31,816.83,15.22
59.320224,881.62,832.34,16.91
59.335851,888.07,844.78,13.71
59.351478,900.77,850.03,14.53
59.367105,908.43,863.76,19.04
59.382732,917.81,874.47,16.14
59.398359,928.90,882.76,12.35
59.413986,928.72,890.68,14.65
59.429613,940.26,907.08,15.84
59.445240,948.65,902.17,14.76
59.460867,953.26,917.12,12.95
59.476494,954.59,923.21,15.44
59.492121,955.00,924.14,15.24
59.507748,961.88,923.69,13.36
59.523375,956.60,926.24,11.16
59.539002,948.19,924.97,14.68
59.554630,951.35,917.49,13.66
59.570257,948.83,909.60,15.73
59.585884,941.64,906.27,14.20
59.601511,938.09,896.35,16.41
59.617138,934.22,889.70,14.11
59.632765,924.64,888.74,15.10
59.648392,921.76,877.78,15.71
59.664019,916.02,864.48,16.88
59.679646,908.05,858.61,14.51
59.695273,906.24,862.46,15.40
59.710900,900.40,849.64,14.21
59.726527,892.91,850.20,12.09
59.742154,887.86,847.38,12.64
59.757781,890.85,836.07,14.99
59.773408,886.90,840.92,17.23
59.789035,887.46,834.34,17.02
59.804662,883.33,830.56,17.89
59.820289,882.51,829.15,15.53
59.835916,883.10,830.48,14.90
59.851543,877.50,826.57,14.23
59.867170,874.06,823.12,14.39
59.882797,874.95,821.04,13.09
59.898424,873.08,812.76,18.89
59.914051,870.98,812.58,14.17
59.929678,866.55,806.26,13.65
59.945305,863.49,805.86,16.63
59.960932,858.65,798.62,11.86
59.976559,849.22,792.66,16.87
59.992186,851.55,793.38,17.04
60.007814,849.78,789.70,11.94
60.023441,851.74,790.52,12.97
60.039068,852.59,794.63,15.84
60.054695,854.50,797.78,15.22
60.070322,852.88,797.86,12.42
60.085949,866.67,804.45,15.44
60.101576,864.70,812.99,15.37
60.117203,871.21,815.68,12.62
60.132830,875.76,827.76,16.06
60.148457,886.47,838.13,15.53
60.164084,900.30,848.78,18.19
60.179711,909.51,862.20,14.08
60.195338,921.42,867.12,13.80
60.210965,919.88,883.37,11.00
60.226592,933.25,900.46,14.81
60.242219,944.47,899.35,12.54
60.257846,942.44,913.85,16.07
60.273473,949.04,916.17,13.86
60.289100,957.39,924.29,10.31
60.304727,964.03,920.34,15.59
60.320354,959.17,929.18,17.54
60.335981,957.66,927.63,12.45
60.351608,957.73,921.08,16.50
60.367235,953.79,920.63,16.94
60.382862,949.59,916.16,15.70
60.398489,946.44,912.16,18.32
60.414116,938.57,899.87,12.61
60.429743,936.10,894.32,16.99
60.445370,924.81,887.59,14.33
60.460998,920.52,885.49,15.92
60.476625,911.77,874.68,15.26
60.492252,914.06,863.51,15.95
60.507879,905.41,863.61,12.26
60.523506,904.57,859.43,13.16
60.539133,905.76,849.76,14.43
60.554760,896.78,847.35,11.26
60.570387,893.78,850.73,14.22
60.586014,895.46,838.48,16.39
60.601641,886.26,838.52,16.36
60.617268,886.24,837.48,15.85
60.632895,880.66,827.67,17.08
60.648522,883.88,834.77,14.29
60.664149,881.54,835.27,14.51
60.679776,879.02,823.00,19.11
60.695403,873.12,817.15,15.61
60.711030,871.29,816.43,15.12
60.726657,868.82,813.86,17.50
60.742284,860.01,810.12,16.21
60.757911,866.30,810.45,15.55
60.773538,863.57,800.79,15.48
